idx	X	Y	component
0	1000	1024.079769043955	0
1	1146.331608762491	1005.712196188243	0
2	1146.331601688026	1005.712195486265	0
3	1147.292065458026	1005.99315061578	0
4	1146.331629113809	1005.712193158332	0
5	1147.292071182185	1005.993139724658	0
6	1147.292092815522	1005.993148919385	0
7	1277.013343308845	1018.6811340088	0
8	1277.013506209565	1018.681171663938	0
9	1278.006222851367	1018.818064965575	0
10	1277.013377036443	1018.681132862273	0
11	1278.006234503706	1018.818060941715	0
12	1278.006234502852	1018.818060942235	0
13	1303.066182273944	1026.079930975856	0
14	1303.066180973831	1026.079926886328	0
15	1303.964746589391	1026.526338021482	0
16	1303.066186261606	1026.079929597626	0
17	1303.964701747226	1026.526329340567	0
18	1303.964751680334	1026.52633998823	0
19	1319.454450275395	1030.788439891943	0
20	1319.454450274408	1030.788439891778	0
21	1320.45350588753	1030.878208197151	0
22	1319.454383517632	1030.788477351423	0
23	1320.453474790534	1030.878214708372	0
24	1320.453492797016	1030.878208565468	0
25	1563.277756987867	1037.461132893551	0
26	1563.27775281341	1037.461140593716	0
27	1564.252977898875	1037.220320314804	0
28	1563.277881915678	1037.461236839046	0
29	1564.252926113197	1037.220344831885	0
30	1564.252991928918	1037.22031707266	0
31	1591.534681405723	1030.355986203449	0
32	1591.534702641605	1030.355991880238	0
33	1592.497550304317	1030.074672310567	0
34	1591.534973152198	1030.355814863136	0
35	1592.497429717687	1030.074622066929	0
36	1592.497555155267	1030.074674298984	0
37	1808.077300592331	1020.926265405402	0
38	1808.07727280609	1020.926262398684	0
39	1809.059709358012	1020.717236391326	0
40	1808.07741475083	1020.92631035764	0
41	1809.060048966545	1020.71722260628	0
42	1809.059730352379	1020.717246396431	0
43	1978.047734253563	1002.721205861283	0
44	1978.047732068524	1002.721204241954	0
45	1979.029241431467	1002.931631112567	0
46	1978.047812298148	1002.721120680318	0
47	1979.029229174118	1002.931596148339	0
48	1979.029182598162	1002.931622428568	0
49	2025.552452528489	1011.39704748753	0
50	2025.552474556992	1011.397056574271	0
51	2026.460277209862	1011.826441699849	0
52	2025.552643232773	1011.396941794167	0
53	2026.460404986154	1011.826484981631	0
54	2026.46029025745	1011.826447782358	0
55	2068.866904767048	1020.475348823856	0
56	2068.867018864335	1020.475201552841	0
57	2069.871451720947	1020.464221675185	0
58	2068.866961370203	1020.475378879729	0
59	2069.871476074585	1020.464303178115	0
60	2069.871500426694	1020.464224133574	0
61	2137.074700504744	1015.105955794157	0
62	2137.074708815114	1015.105957816293	0
63	2138.049251319514	1015.343125258497	0
64	2137.074812190781	1015.105912902616	0
65	2138.049305537481	1015.343120316346	0
66	2138.049221533659	1015.343124781293	0
67	2400.963894992814	1035.616296631962	0
68	2400.963912078934	1035.616291183729	0
69	2401.828076357682	1036.123096698373	0
70	2400.964840827011	1035.616059060497	0
71	2401.828002911804	1036.123132140272	0
72	2401.828079765524	1036.123096737779	0
73	2588.072311032736	1047.901862488264	0
74	2588.072384347302	1047.901894381784	0
75	2589.074905326606	1047.911625006535	0
76	2588.0723345938	1047.901866377855	0
77	2589.074882765531	1047.911614386623	0
78	2589.074900804151	1047.911605739362	0
79	2874.455983402431	1010.32572218391	0
80	2874.381467549149	1010.34609699801	0
81	2874.512947684072	1010.298571101372	0
82	2874.455083991745	1010.321049001267	0
83	2874.41704039871	1010.203062033931	0
84	2874.416113169537	1010.199337778815	0
85	2874.482750469631	1010.729282652858	0
86	2874.483235121197	1010.73463312804	0
87	3097.837298737439	1018.439996440565	0
88	3097.837277295945	1018.439999432841	0
89	3098.541108517145	1019.152981628418	0
90	3097.837702834307	1018.439920723904	0
91	3098.541194560344	1019.152997379004	0
92	3098.541157969243	1019.152976693927	0
93	3442.944724336982	1001.968004623867	0
94	3442.944692785455	1001.968006175099	0
95	3443.809936946967	1002.472192191825	0
96	3442.944842910406	1001.967967094278	0
97	3443.810005339099	1002.472196215694	0
98	3443.809943083359	1002.472190133674	0
99	3581.243850518143	1025.597028439738	0
100	3581.243854074864	1025.597028422015	0
101	3581.970442117905	1026.286573042205	0
102	3581.243917853466	1025.597037920088	0
103	3581.970485738621	1026.286532749919	0
104	3581.97041425436	1026.286572395178	0
105	4156.329920939535	1026.190662146922	0
106	4156.329920711504	1026.190662718897	0
107	4156.941994088985	1025.400228275336	0
108	4156.33008890312	1026.190656288579	0
109	4156.942805989648	1025.400248713225	0
110	4156.942031016956	1025.400225944694	0
111	4776.842902199873	1064.224636522718	0
112	4776.842818491685	1064.224622970452	0
113	4861.27917750243	1041.98781734186	0
114	4861.27907804371	1041.987750096832	0
115	4862.054727227085	1041.353890188766	0
116	4861.279166067483	1041.987821755038	0
117	4862.05478859382	1041.353866240035	0
118	4862.054724811172	1041.35389414471	0
119	4948.452311853766	1015.142796810013	0
120	4948.452423208888	1015.14283009425	0
121	4949.275813428063	1014.572625371136	0
122	4948.452317730546	1015.142798479913	0
123	4949.275794940121	1014.572580573485	0
124	4949.275813427607	1014.572625370245	0
125	5997.707644011487	1036.289028176378	0
126	5997.707466379466	1036.289028866068	0
127	5998.55125900423	1035.748882888502	0
128	5997.707682931748	1036.289040328218	0
129	5998.551554595822	1035.748932303758	0
130	5998.551259005229	1035.748882888498	0
131	6014.680262147565	1030.21226353058	0
132	6014.680204221099	1030.212276616407	0
133	6015.657171755433	1029.986349456044	0
134	6014.680453354893	1030.212230820023	0
135	6015.655289932611	1029.986357663921	0
136	6015.657215473368	1029.986351770549	0
137	6090.622243657656	1015.715587021285	0
138	6090.622232090293	1015.715589223547	0
139	6091.616416431793	1015.839255654284	0
140	6090.62219794684	1015.715420889461	0
141	6091.616374707253	1015.839244294414	0
142	6091.616432137549	1015.839256525335	0
143	6144.751661759135	1019.188474233086	0
144	6144.75173097127	1019.188481727708	0
145	6145.724606088269	1018.947051753996	0
146	6144.751701473855	1019.188493187045	0
147	6145.724701268085	1018.947045471612	0
148	6145.724685737277	1018.947046813702	0
149	6601.227948678558	1042.997506959608	0
150	6601.22795304479	1042.997508793527	0
151	6602.134640220695	1042.573279688371	0
152	6601.228040219359	1042.997521873715	0
153	6602.134678164322	1042.573301222227	0
154	6602.134683696891	1042.573279414705	0
155	6686.099660758878	1027.374646779552	0
156	6686.099651575025	1027.374650428299	0
157	6686.961089116895	1026.862210854232	0
158	6686.099647166621	1027.37465478082	0
159	6686.961272607998	1026.862176906891	0
160	6686.961119313951	1026.862198331811	0
161	7236.582592071725	1055.455001491385	0
162	7236.582574585338	1055.455003479771	0
163	7237.535303398296	1055.144376733105	0
164	7236.582670217049	1055.455119214326	0
165	7237.53527414656	1055.144369830601	0
166	7237.535291231964	1055.144376047554	0
167	7610.929619002471	1037.379948472614	0
168	7610.929643398737	1037.379936921624	0
169	7611.821184412598	1036.902224073988	0
170	7610.924045652203	1037.38417291576	0
171	7611.818886694092	1036.904179616969	0
172	7611.818865048622	1036.904191197684	0
173	7612.674886778755	1036.191157312349	0
174	7612.664684170094	1036.195114151421	0
175	7612.689191587247	1036.181081815775	0
176	7612.688412861071	1036.182239995631	0
177	7687.527346006581	1019.993935368495	0
178	7687.52729848444	1019.993943550019	0
179	7688.486595760071	1019.688441730949	0
180	7687.527282434163	1019.993959257948	0
181	7688.487691114145	1019.68800789018	0
182	7688.486726982823	1019.688435199133	0
183	7947.17491548931	1002.359831859064	0
184	7947.174955882572	1002.359839594267	0
185	7948.138270867695	1002.643882705848	0
186	7947.175294234045	1002.359241743775	0
187	7948.138331908773	1002.643865314556	0
188	7948.138262681068	1002.643882327455	0
189	8096.368707451752	1024.252597520304	0
190	8096.368742100422	1024.25259891532	0
191	8097.220621744731	1024.787062966936	0
192	8096.368911818914	1024.252652614308	0
193	8097.220759216154	1024.78706490884	0
194	8097.220774967752	1024.787066816006	0
195	8106.737290793535	1028.003053981379	0
196	8106.737279282548	1028.003082115723	0
197	8107.678549471593	1028.343275334376	0
198	8106.737286771726	1028.003118223939	0
199	8107.678408688161	1028.343458372224	0
200	8107.678521877185	1028.34327561072	0
201	8542.650837181031	1054.898769502932	0
202	8542.650556600565	1054.898682990987	0
203	8543.443411252076	1054.285955322095	0
204	8542.650885547155	1054.898770567731	0
205	8543.443685021508	1054.285942400502	0
206	8542.650815285593	1054.89883930531	0
207	8543.442890432463	1054.286242122609	0
208	8543.442890433415	1054.286242122302	0
209	8753.473884874136	1013.561755382224	0
210	8753.473904442366	1013.56176037743	0
211	8753.655547921959	1013.481701451277	0
212	8753.659850435784	1013.479812601728	0
213	9477.143668631674	1003.238961402611	0
214	9477.142622893341	1003.238896809368	0
215	9477.780483538361	1004.015543848564	0
216	9477.143664829107	1003.23895448438	0
217	9477.780695264682	1004.015525728742	0
218	9477.780541275783	1004.01547714735	0
219	9630.16390865408	1032.659665226227	0
220	9630.163912096339	1032.659667579043	0
221	9631.050022910074	1033.131939959233	0
222	9630.163824056321	1032.659660080225	0
223	9631.050372068814	1033.132293787482	0
224	9631.050432498929	1033.131922995314	0
225	9782.487022638454	1021.606990397275	0
226	9782.486660022905	1021.607200996498	0
227	9783.203882026955	1020.902665302453	0
228	9782.487216344409	1021.607089019288	0
229	9783.20777799317	1020.903287672618	0
230	9783.207880805254	1020.903301634068	0
231	9970.77051631237	1034.56806923319	0
232	9970.770626748917	1034.568175636236	0
233	9971.451444441111	1033.825085916503	0
234	9970.770588850291	1034.568061992542	0
235	9971.451615785521	1033.825074927342	0
236	9971.451552612587	1033.82505505494	0
237	10006.68655077788	1024.114687305271	0
238	10006.68390595816	1024.115824168554	0
239	10008.00724664012	1023.478589019162	0
240	10006.69960588384	1024.109594739923	0
241	10008.00380007637	1023.480578947146	0
242	10008.00403412205	1023.480579175491	0
243	10103.05265878274	1036.090420745965	0
244	10103.05257663652	1036.090486129435	0
245	10104.0545412077	1036.190922028275	0
246	10103.05281571869	1036.090414026036	0
247	10104.05549066937	1036.190537334251	0
248	10104.05496776564	1036.190553991395	0
249	10210.69222787773	1020.798612490705	0
250	10210.72262300554	1020.757151006601	0
251	10210.67840316096	1020.818519295694	0
252	10210.67840316154	1020.818519294878	0
253	10210.81070686004	1020.688301093822	0
254	10210.81105245097	1020.688204299707	0
255	10224.04734859697	1016.935160896747	0
256	10224.04663993263	1016.93522788862	0
257	10225.01216030936	1016.646509306384	0
258	10224.04731769096	1016.935248311035	0
259	10225.01304352982	1016.646551097049	0
260	10225.01264368401	1016.646539644024	0
261	10354.94149443991	1000.680707657787	0
262	10354.94170016256	1000.680533771229	0
263	10355.68499282916	1000.000014987863	0
264	10354.94444124418	1000.680749012205	0
265	10355.68632472827	1000.00019540555	0
266	10355.68516442031	1000	0
267	10517.44177773236	1028.044478406237	0
268	10517.40694992687	1028.046699897404	0
269	10517.47799909416	1028.04388378651	0
270	10517.44117011221	1028.044557555126	0
271	10532.83257018668	1026.434900855962	0
272	10532.83133418432	1026.435056154827	0
273	10533.69144654385	1026.94142836876	0
274	10532.83001905891	1026.435178053669	0
275	10533.69247496055	1026.941356573104	0
276	10533.69272353778	1026.941255649722	0
277	10608.15592710327	1019.858894108747	0
278	10608.14478304194	1019.859713464262	0
279	10608.69002772163	1020.690163025932	0
280	10608.15619761781	1019.858869994358	0
281	10608.6959540473	1020.689542233758	0
282	10608.15841596987	1019.85861764415	0
283	10608.69852065712	1020.689706940293	0
284	10608.6944605959	1020.690534618525	0
285	10740.54153583663	1001.957811178014	0
286	10740.48313115459	1001.946043807697	0
287	10740.57695288089	1001.956207847909	0
288	10740.57973703528	1001.956698436596	0
289	10821.43436300218	1033.671068771163	0
290	10821.43205902688	1033.669566756227	0
291	10821.55812510289	1032.775791322407	0
292	10821.448947927	1033.664319481229	0
293	10821.57083691101	1032.785490775817	0
294	10821.57167034635	1032.784421853624	0
295	11105.81807325429	1036.842901489758	0
296	11105.81675372159	1036.842922918965	0
297	11106.48338326194	1036.083226196681	0
298	11105.81785847054	1036.842972718786	0
299	11106.4843962144	1036.083291387762	0
300	11106.48338326293	1036.083226196826	0
301	11182.59314197394	1022.938476761292	0
302	11182.59329141897	1022.938401390995	0
303	11183.59111149328	1022.770100997787	0
304	11182.59392488629	1022.938335846154	0
305	11183.59240569661	1022.769867501148	0
306	11183.59108720992	1022.77013722429	0
307	11211.30195072065	1013.533756768205	0
308	11211.30049187113	1013.529655077218	0
309	11212.13452949588	1014.345554521315	0
310	11212.13131523626	1014.346264624561	0
311	11211.40702000357	1013.354299434524	0
312	11211.40604618119	1013.352931846504	0
313	11212.24849696853	1014.223759489796	0
314	11212.24840000462	1014.223759777673	0
315	11213.37405743654	1013.835807440739	0
316	11213.37572638677	1013.83178217767	0
317	11214.41237089658	1013.925827575236	0
318	11213.37187046238	1013.836321438695	0
319	11214.4126577479	1013.925733384346	0
320	11214.41246386629	1013.925736714177	0
321	11312.18231756662	1009.382781171949	0
322	11312.18238083047	1009.382786314886	0
323	11313.12841121689	1009.745475695922	0
324	11312.18247588002	1009.382749944	0
325	11313.12932611283	1009.745566821574	0
326	11313.12861831035	1009.7454693561	0
327	11371.00478569684	1021.370461461015	0
328	11370.97456197146	1021.36646202749	0
329	11371.03793766443	1021.37361780425	0
330	11371.02245225786	1021.3709688126	0
331	11374.30587901473	1021.247812278768	0
332	11374.30548070371	1021.247836133784	0
333	11375.30907869772	1021.158232002517	0
334	11374.30646688927	1021.247775728318	0
335	11375.30817904613	1021.158326528807	0
336	11375.30796978983	1021.158336911177	0
337	11438.66856212574	1014.373647937045	0
338	11438.66801804276	1014.373490376837	0
339	11439.67728843821	1014.356939943923	0
340	11438.66856041954	1014.373647923374	0
341	11439.67751510856	1014.357166556861	0
342	11439.67744454331	1014.357164963715	0
343	11482.6395381676	1020.868758456403	0
344	11482.63953816857	1020.868758456628	0
345	11483.62195908927	1021.075914976955	0
346	11482.63965644584	1020.868748798979	0
347	11483.62184958633	1021.075944853226	0
348	11483.62208140989	1021.075914348769	0
349	11673.24186650906	1020.883194090081	0
350	11673.24150966281	1020.883286056065	0
351	11674.11951284099	1020.364202346321	0
352	11673.24217654033	1020.883204562494	0
353	11674.12051370839	1020.364174718436	0
354	11674.11951284001	1020.36420234649	0
355	11688.78868092594	1018.598144056415	0
356	11688.78743894558	1018.597582287149	0
357	11688.82364949095	1018.60927057265	0
358	11688.82681640915	1018.610543175514	0
359	11690.84275577439	1019.928107701564	0
360	11690.84286645316	1019.928464250026	0
361	11691.80700725086	1020.209782346597	0
362	11690.84298509275	1019.928178349236	0
363	11691.81143146741	1020.211750966509	0
364	11691.81045039529	1020.211171584051	0
365	11741.63159186396	1028.975863673045	0
366	11741.63179254911	1028.975920021938	0
367	11742.59251221433	1029.295563448269	0
368	11741.63174840269	1028.975877808978	0
369	11742.59265363579	1029.295582327522	0
370	11742.59234787336	1029.295539727584	0
371	11763.38514056651	1033.677738584501	0
372	11763.38520547143	1033.677821339946	0
373	11764.3827615443	1033.813161590289	0
374	11763.38521612488	1033.677746861443	0
375	11764.38284991371	1033.813088695971	0
376	11764.38283920489	1033.813088883758	0
377	11849.58985967979	1022.019278863975	0
378	11849.58987044425	1022.019254638333	0
379	11851.49996820507	1021.385198766758	0
380	11849.58994358265	1022.019282025877	0
381	11851.50061782857	1021.385181951877	0
382	11851.500700598	1021.385186605508	0
383	11887.15753516817	1014.365646583277	0
384	11887.15731287029	1014.365645971111	0
385	11888.13728121764	1014.122853301897	0
386	11887.15775224241	1014.36560119295	0
387	11888.13768496604	1014.122801602286	0
388	11888.13733297224	1014.122835203279	0
389	11972.46820712213	1022.480345646948	0
390	11972.46836423074	1022.480354496563	0
391	11973.43526490063	1022.75205225487	0
392	11972.46875509538	1022.480351246366	0
393	11973.43531362813	1022.752055579414	0
394	11973.43531182677	1022.752051632142	0
395	12177.50144303214	1024.650118885615	0
396	12177.50139225514	1024.650114934938	0
397	12178.46691295215	1024.923304494371	0
398	12177.50188298651	1024.650070623517	0
399	12178.46724797367	1024.923320225755	0
400	12178.4669211627	1024.923304318142	0
401	12213.83412002595	1032.884684438822	0
402	12213.83406941436	1032.884634869789	0
403	12214.76087238085	1033.279445616246	0
404	12213.83412233397	1032.884684880732	0
405	12214.76093267522	1033.279362016307	0
406	12214.76094215438	1033.279362286173	0
407	12230.45453295614	1036.898687218025	0
408	12230.45447957304	1036.898677696586	0
409	12231.43635708688	1037.115884779363	0
410	12230.45451198908	1036.898681784039	0
411	12231.43650416915	1037.115896496864	0
412	12231.4365119679	1037.115892954774	0
413	12419.40046177418	1037.522801909202	0
414	12419.40001935034	1037.523349329059	0
415	12420.33127459114	1037.140957975801	0
416	12419.40045058751	1037.522808997711	0
417	12420.33116681518	1037.140992375099	0
418	12420.33130624851	1037.14097731066	0
419	12428.25725170436	1035.722230197395	0
420	12428.25722407348	1035.722231441088	0
421	12429.22643219329	1035.459890424006	0
422	12428.25723363625	1035.722239109994	0
423	12429.22651666997	1035.459887796482	0
424	12429.22645849381	1035.459887481186	0
425	12439.92032674337	1032.582709361235	0
426	12439.92032674238	1032.582709361351	0
427	12440.882338901	1032.292460499073	0
428	12439.92023530092	1032.58274665211	0
429	12440.88362233211	1032.29236391766	0
430	12440.88363059479	1032.292363410034	0
431	12522.5190857604	1033.666077999498	0
432	12522.51911440506	1033.666082564169	0
433	12523.49614255939	1033.419980401111	0
434	12522.51932719818	1033.666181733741	0
435	12523.49452733728	1033.421454987426	0
436	12523.49617530838	1033.419975773707	0
437	12571.9893818414	1023.953448298622	0
438	12571.98920950901	1023.953345904504	0
439	12572.95632619927	1023.670840872723	0
440	12571.98951572277	1023.953421708809	0
441	12572.95642911042	1023.67086023113	0
442	12572.95652645539	1023.670838573068	0
443	12577.74873079106	1022.091390319854	0
444	12577.74876651838	1022.091068423205	0
445	12578.74175138709	1021.910531708005	0
446	12577.7487142495	1022.091404570336	0
447	12578.74159004839	1021.910625341325	0
448	12578.74160181164	1021.91062386619	0
449	12596.70583029315	1019.329676213937	0
450	12596.70549074184	1019.328838608973	0
451	12597.70994465515	1019.259185784562	0
452	12596.70586057969	1019.329676477568	0
453	12597.71025224845	1019.261293529019	0
454	12597.71014432496	1019.261304572859	0
455	12603.76277312139	1019.532964597094	0
456	12603.76282413468	1019.532801105136	0
457	12604.7372946715	1019.798148603386	0
458	12603.76289140395	1019.532910720414	0
459	12604.73878779124	1019.798076746399	0
460	12604.73871074904	1019.798062148599	0
461	12660.54527442733	1028.10169860995	0
462	12660.54518594789	1028.101715953831	0
463	12661.52108149897	1028.344568522757	0
464	12660.54531631402	1028.101698854663	0
465	12661.52118175759	1028.344369414954	0
466	12661.52125603389	1028.344379021311	0
467	12766.91787250033	1037.254000070475	0
468	12766.91788654576	1037.25400539922	0
469	12767.91621955845	1037.131172690888	0
470	12766.91806461372	1037.254014514413	0
471	12767.91626811364	1037.131177457495	0
472	12767.91617597811	1037.131171923807	0
473	12840.24365138218	1031.867830414436	0
474	12840.2437673323	1031.867832974014	0
475	12841.18467125384	1031.513335781857	0
476	12840.24379209765	1031.867844530862	0
477	12841.1846663224	1031.513391294937	0
478	12841.18466632416	1031.513391294132	0
479	12865.71897212572	1025.818234839407	0
480	12865.71896339624	1025.818215590353	0
481	12866.67515391884	1025.510533728172	0
482	12865.71898397903	1025.818233831147	0
483	12866.67551602738	1025.510520138836	0
484	12866.67507007714	1025.510562289988	0
485	12886.39091405057	1021.452396484039	0
486	12886.39088876834	1021.45238945863	0
487	12887.3977555937	1021.465704276599	0
488	12886.39081322688	1021.452357030311	0
489	12887.39784560458	1021.46568504708	0
490	12887.39774401162	1021.465690997074	0
491	13011.86295435902	1017.957173580558	0
492	13011.86295056032	1017.957172668636	0
493	13012.85079037221	1017.78550576639	0
494	13011.86298194783	1017.957173152433	0
495	13012.85089107962	1017.785504741436	0
496	13012.85085867551	1017.785504787982	0
497	13082.97227103367	1012.827339338351	0
498	13082.97227821733	1012.827368515431	0
499	13083.9497834371	1012.599280348846	0
500	13082.97230422674	1012.827339758804	0
501	13083.94987391198	1012.599266477284	0
502	13083.9497915916	1012.59928073455	0
503	13236.34001706624	1023.708674572759	0
504	13236.34006849426	1023.708661042062	0
505	13237.33390542756	1023.568636227992	0
506	13236.34006950244	1023.708674717976	0
507	13237.3340726845	1023.568635899772	0
508	13237.33398182536	1023.568630310693	0
509	13257.24739587482	1020.793947831365	0
510	13257.24739008657	1020.793947450757	0
511	13259.1582596314	1020.157581862847	0
512	13257.24750170799	1020.793956066254	0
513	13259.15860412443	1020.157553924024	0
514	13259.15840548365	1020.157571267576	0
515	13270.04697468183	1018.226758257081	0
516	13270.04713717478	1018.226734960927	0
517	13271.01192470386	1017.951319690278	0
518	13270.04747845312	1018.226769760747	0
519	13271.01189472178	1017.951328703113	0
520	13271.01191478662	1017.951320940815	0
521	13279.87095909593	1016.121773525032	0
522	13279.87088941078	1016.121759189177	0
523	13280.85955436205	1015.946089304313	0
524	13279.87112731619	1016.121749779548	0
525	13280.85960431778	1015.946085018999	0
526	13280.85960487765	1015.946085015702	0
527	13285.86269722179	1015.490568245687	0
528	13285.86270743743	1015.490562117606	0
529	13286.85094546615	1015.308503355272	0
530	13285.8626710908	1015.490561512608	0
531	13286.85105865537	1015.308500910648	0
532	13286.8510036609	1015.308510776144	0
533	13393.58906524827	1029.713950121316	0
534	13393.58904439569	1029.713946833517	0
535	13394.5371279026	1030.044988702326	0
536	13393.58906232222	1029.713946651442	0
537	13394.53715044645	1030.044994512293	0
538	13394.53714000341	1030.044994522039	0
539	13555.89505248103	1034.068000447667	0
540	13555.89481198157	1034.068172568819	0
541	13555.91140443433	1034.077321665703	0
542	13555.92165350238	1034.082615007203	0
543	13622.45230325955	1016.872922218859	0
544	13622.43167500309	1016.918906151644	0
545	13622.55881497003	1016.780889751913	0
546	13622.62538636847	1016.469844315186	0
547	13622.61532411365	1016.757125377562	0
548	13622.56157812548	1016.779808809386	0
549	13802.16913476224	1024.086861993783	0
550	13802.16912774586	1024.086855510059	0
551	13803.14730304302	1024.309374234846	0
552	13802.16902146441	1024.08684961437	0
553	13803.1469942052	1024.309355745243	0
554	13803.14791062538	1024.308282326056	0
555	13804.12507773684	1024.536750777696	0
556	13803.14727064174	1024.309372917777	0
557	13804.12543959283	1024.536762031783	0
558	13804.12545289085	1024.536762047081	0
559	13835.02205958404	1028.854080655615	0
560	13835.02207724635	1028.854079178702	0
561	13836.02577827759	1028.815167666361	0
562	13835.0220958769	1028.854098710316	0
563	13836.02573932985	1028.815182700651	0
564	13836.02577827659	1028.815167666344	0
565	13866.10469576628	1026.255297462565	0
566	13866.10505870142	1026.255301249471	0
567	13867.11011204618	1026.215187360438	0
568	13866.10488403193	1026.255008330237	0
569	13867.10999702356	1026.21464654613	0
570	13867.11015972282	1026.215190518453	0
571	13884.0842454602	1028.206858546495	0
572	13884.08451390573	1028.206880278089	0
573	13885.08829788115	1028.196384471472	0
574	13884.08429152424	1028.206862032694	0
575	13885.08826176601	1028.196383176298	0
576	13885.08827793749	1028.196384316794	0
577	13911.09945378697	1030.627344628623	0
578	13911.09939672237	1030.627344885337	0
579	13912.09831553879	1030.529645143143	0
580	13911.09943479795	1030.627343397529	0
581	13912.09847083314	1030.529637615792	0
582	13912.09837940397	1030.529626387417	0
583	13991.22054725806	1022.709488585416	0
584	13991.22049014315	1022.709504877466	0
585	13992.22135452867	1022.613729499171	0
586	13991.22055355233	1022.709502204933	0
587	13992.22128669366	1022.613740335107	0
588	13992.22116926319	1022.61376475681	0
589	14045.19850395836	1028.713039093246	0
590	14045.19850222554	1028.713040523563	0
591	14046.18032958398	1028.925888792495	0
592	14045.19844491326	1028.713033881033	0
593	14046.18037848225	1028.925894877711	0
594	14046.18032958497	1028.925888792631	0
595	14049.1508345436	1029.429517033515	0
596	14049.1509283239	1029.429530575694	0
597	14050.13685836581	1029.622421389244	0
598	14049.15107271174	1029.429534083265	0
599	14050.13681436492	1029.622414505921	0
600	14050.13689629751	1029.622420727612	0
601	14062.95375621272	1032.204181670735	0
602	14062.95316569935	1032.204704642973	0
603	14063.95577382757	1032.268562087596	0
604	14062.95373637571	1032.204181478033	0
605	14063.9557634572	1032.268549952613	0
606	14063.9557752094	1032.26855070754	0
607	14172.56163017945	1030.904798963752	0
608	14172.5616512448	1030.904805855937	0
609	14173.55841543691	1030.772954800179	0
610	14172.56168912122	1030.904805364449	0
611	14173.55829628298	1030.772988922647	0
612	14173.5585423248	1030.772941586197	0
613	14215.55145631241	1023.457967482437	0
614	14215.5490913794	1023.458284110361	0
615	14215.79892528851	1023.426033890696	0
616	14215.80337452168	1023.425458773962	0
617	14236.02336345491	1020.172394299088	0
618	14236.02370346923	1020.172350145335	0
619	14237.03020489603	1020.12521560844	0
620	14236.02380056121	1020.17224824489	0
621	14237.03025543899	1020.125186042958	0
622	14237.03031923975	1020.125175905156	0
623	14249.13499868061	1019.735919621231	0
624	14249.13500381477	1019.735927421842	0
625	14250.14193988443	1019.748689351895	0
626	14249.13529424414	1019.735766568621	0
627	14250.14165543294	1019.748481047275	0
628	14250.14189491968	1019.748691082438	0
629	14269.04526856675	1023.04792202286	0
630	14269.04532988044	1023.047911039638	0
631	14269.99984985767	1023.369695746033	0
632	14269.04515793647	1023.047894730969	0
633	14269.99967655417	1023.369597009049	0
634	14269.99977413391	1023.369616880542	0
635	14277.87249550221	1025.084609450459	0
636	14277.8725748019	1025.084719512474	0
637	14278.85850878807	1025.285268918926	0
638	14277.87267878855	1025.084643483776	0
639	14278.85852272117	1025.285165750963	0
640	14278.85870926504	1025.285192245722	0
641	14313.55037958726	1031.313832816586	0
642	14313.55045864861	1031.313860678746	0
643	14314.55472223988	1031.381232618717	0
644	14313.54966836877	1031.313239968334	0
645	14314.55480713291	1031.381179180502	0
646	14314.55488610858	1031.381189938908	0
647	14315.55368209959	1031.505962130223	0
648	14315.55368507633	1031.505967582622	0
649	14316.55839627919	1031.517141026347	0
650	14315.55391965485	1031.506008645452	0
651	14316.55837406361	1031.517143917428	0
652	14316.55842447692	1031.51714089115	0
653	14404.79913480132	1038.318352685927	0
654	14404.79916167073	1038.318354721708	0
655	14405.80350789436	1038.270042461696	0
656	14404.79913418661	1038.318357479825	0
657	14405.80357957033	1038.270061240499	0
658	14405.80349925872	1038.270043017675	0
659	14435.7231481163	1034.212938039502	0
660	14435.72314744367	1034.21293749235	0
661	14436.69564031615	1033.963051692972	0
662	14435.72314708384	1034.212945062344	0
663	14436.69566475248	1033.963017912182	0
664	14436.69564498268	1033.963051108676	0
665	14591.70375494517	1018.202931096123	0
666	14591.70387456293	1018.202925613164	0
667	14592.70255349219	1018.296124822296	0
668	14591.70393654451	1018.202897837914	0
669	14592.7025064026	1018.296110343052	0
670	14592.70259591251	1018.296128675262	0
671	14623.5799963177	1022.668518057354	0
672	14623.58010435415	1022.668608590039	0
673	14624.57704618931	1022.771698417494	0
674	14623.57996580519	1022.668517955198	0
675	14624.57735354875	1022.7713001325	0
676	14624.57730306878	1022.771298321249	0
677	14782.91188945951	1011.630318323788	0
678	14782.91196503189	1011.630319751343	0
679	14783.91325859163	1011.691373370271	0
680	14782.91193362004	1011.630315213358	0
681	14783.91333838018	1011.691362385136	0
682	14783.91343949216	1011.691368138317	0
683	14812.80399588983	1015.57111607392	0
684	14812.80388818344	1015.571112774424	0
685	14813.796107919	1015.721563872291	0
686	14812.80394006714	1015.571105061214	0
687	14813.79615443065	1015.721562278401	0
688	14813.79615443047	1015.721562277417	0
689	14869.01804863735	1013.012469380141	0
690	14869.01804963006	1013.012465456913	0
691	14870.00017644239	1013.217160235208	0
692	14869.01823848726	1013.012458096212	0
693	14870.00025291381	1013.217159793016	0
694	14870.00025335664	1013.217163412303	0
695	14920.0843757833	1016.934574124929	0
696	14920.08446001237	1016.934589065966	0
697	14921.05740771887	1017.188420156222	0
698	14920.08432702932	1016.934537326379	0
699	14921.05744064074	1017.188425765894	0
700	14921.05741651779	1017.188417623375	0
701	14953.80096632315	1022.713608658852	0
702	14953.80098828709	1022.713611749425	0
703	14954.78794979972	1022.907263540992	0
704	14953.80086894447	1022.713576245789	0
705	14954.78889816786	1022.905376297341	0
706	14954.7888288776	1022.905367784911	0
707	14974.91220695885	1023.673052212452	0
708	14974.91218121033	1023.673058255921	0
709	14975.9109890383	1023.55942251498	0
710	14974.91220133406	1023.673051859916	0
711	14975.91103906124	1023.559443470918	0
712	14975.91098996689	1023.559421748854	0
713	14980.89707416902	1022.870582091205	0
714	14980.89708072895	1022.870697092987	0
715	14981.86386043862	1022.584641883364	0
716	14980.89703408088	1022.870591450906	0
717	14981.86388448801	1022.584655042604	0
718	14981.86388246329	1022.584653393937	0
719	14994.76941887301	1020.470927926807	0
720	14994.7694032397	1020.470930928751	0
721	14995.76769402958	1020.353359926028	0
722	14994.76941097726	1020.470928907085	0
723	14995.76765102694	1020.353367670886	0
724	14995.76771016874	1020.353356772431	0
725	15013.51792721203	1016.752989881982	0
726	15013.51793298825	1016.752989971216	0
727	15014.52168118708	1016.688740812366	0
728	15013.51797584797	1016.75295353165	0
729	15014.52171737742	1016.68873913025	0
730	15014.52166804267	1016.688747631981	0
731	15098.9424707773	1012.968495073693	0
732	15098.9425166146	1012.968429157458	0
733	15099.94459640351	1013.020455375337	0
734	15098.94246299311	1012.968494123471	0
735	15099.94460956774	1013.020487662385	0
736	15099.94460972176	1013.020464001374	0
737	15135.75249350374	1018.534062981215	0
738	15135.75235148318	1018.5340545526	0
739	15136.75020258008	1018.659992671718	0
740	15135.75240536588	1018.534066879453	0
741	15136.75030901879	1018.660000817595	0
742	15136.7502563232	1018.659989031396	0
743	15138.76063685544	1018.656429551185	0
744	15138.76066312059	1018.656429427333	0
745	15139.760180486	1018.545964018309	0
746	15138.76073359974	1018.656430644316	0
747	15139.76020320058	1018.545967078342	0
748	15139.7602367148	1018.545959470649	0
749	15194.99678769817	1016.383472216943	0
750	15194.99681925241	1016.383474105198	0
751	15195.99338599775	1016.511424989889	0
752	15194.99680140852	1016.383472720497	0
753	15195.99345166595	1016.511418049245	0
754	15195.99342638897	1016.511429048501	0
755	15201.94505195078	1017.478244365353	0
756	15201.9450255121	1017.478244179247	0
757	15202.92896003282	1017.68082300065	0
758	15201.94503792438	1017.478242086714	0
759	15202.92893100578	1017.680814270868	0
760	15202.92893100676	1017.680814271058	0
761	15269.38269504805	1028.69880744286	0
762	15269.38269504711	1028.698807442512	0
763	15270.33876914129	1029.005239600269	0
764	15269.38279926313	1028.698820116812	0
765	15270.33876752865	1029.005253484573	0
766	15270.33879424002	1029.005257215923	0
767	15275.243045764	1030.096680540935	0
768	15275.24305096367	1030.096688182484	0
769	15276.19935398814	1030.405527246065	0
770	15275.24328146813	1030.096714053967	0
771	15276.19942863938	1030.405559262823	0
772	15276.19932122177	1030.405513095114	0
773	15595.15602461516	1023.892674231693	0
774	15595.15602650837	1023.89267382544	0
775	15596.12816161109	1023.646593608885	0
776	15595.15610171283	1023.892687910933	0
777	15596.12818757568	1023.646597736255	0
778	15596.12816092501	1023.646591793948	0
779	15598.07957976732	1023.17448761055	0
780	15598.07954810301	1023.174485513335	0
781	15599.04872812821	1022.918391151588	0
782	15598.07957405453	1023.174490027259	0
783	15599.04875801138	1022.918386373418	0
784	15599.04878004958	1022.918383779061	0
785	15608.93538885816	1021.157913930705	0
786	15608.93538984829	1021.157915203935	0
787	15609.89260249882	1020.856157104844	0
788	15608.93544708767	1021.157904046178	0
789	15609.89273069257	1020.856154128248	0
790	15609.8926880922	1020.856173074746	0
791	15610.8740739994	1020.642102020729	0
792	15610.87406183906	1020.642103082606	0
793	15611.84467736234	1020.389231060587	0
794	15610.87402640377	1020.642105582336	0
795	15611.84474733499	1020.389212913543	0
796	15611.84471884687	1020.389223801541	0
797	15750.30658689558	1012.581992309917	0
798	15750.3066403118	1012.581993846671	0
799	15751.31046367187	1012.62152140887	0
800	15750.30660491337	1012.581987567406	0
801	15751.31046500488	1012.621526100884	0
802	15751.31050535837	1012.621529842919	0
803	15804.29978071028	1018.451905699104	0
804	15804.29977465261	1018.451912434147	0
805	15805.26917361782	1018.707921742351	0
806	15804.29979007484	1018.451905735109	0
807	15805.26926453344	1018.707935479182	0
808	15805.2693894153	1018.707946040881	0
809	15870.7966126691	1029.559617598139	0
810	15870.79572431904	1029.559471239627	0
811	15871.77725953953	1029.775030676365	0
812	15870.79659865141	1029.559612896434	0
813	15871.77730184908	1029.775013793072	0
814	15871.77729519769	1029.775014314309	0
815	15920.69772692247	1036.347048416003	0
816	15920.69780204963	1036.347050200323	0
817	15921.70079441584	1036.422997447993	0
818	15920.69795484731	1036.347096399282	0
819	15921.70068491357	1036.423010675849	0
820	15921.70079441681	1036.422997447731	0
821	15965.85828402554	1032.763013627191	0
822	15965.85832923595	1032.763009717346	0
823	15966.85008447596	1032.604018323286	0
824	15965.85822415054	1032.763023126922	0
825	15966.85009377707	1032.604019360677	0
826	15966.85008221883	1032.6040184492	0
827	16046.6038886351	1021.695573303504	0
828	16046.60386561706	1021.6955778009	0
829	16047.5854820239	1021.478731374281	0
830	16046.60388913132	1021.695574433695	0
831	16047.58523176004	1021.478745684442	0
832	16047.58544401063	1021.478736340383	0
833	16082.51202526669	1016.877489082415	0
834	16082.51203930227	1016.877490739114	0
835	16083.51481148206	1016.955087784875	0
836	16082.51199864666	1016.877467476154	0
837	16083.51482683779	1016.955084406266	0
838	16083.51474256517	1016.955082583372	0
839	16151.66091810547	1023.143428959275	0
840	16151.66093680631	1023.143430589122	0
841	16152.66344969774	1023.199742699294	0
842	16151.6609017795	1023.143433750931	0
843	16152.66328192962	1023.199772997927	0
844	16152.66349117272	1023.199743830232	0
845	16178.69221761071	1020.858012442841	0
846	16178.69221103125	1020.858014764414	0
847	16179.67592769521	1020.658317993924	0
848	16178.69237978171	1020.857991128376	0
849	16179.67592275986	1020.658326135925	0
850	16179.67586181565	1020.658328221587	0
851	16231.66646336885	1015.099688628178	0
852	16231.66650871572	1015.09969584631	0
853	16232.66962742679	1015.084237187237	0
854	16231.6664939497	1015.099682117072	0
855	16232.66963057558	1015.084232509448	0
856	16232.66968999688	1015.084235970729	0
857	16343.84690114948	1025.318116885622	0
858	16343.84686424283	1025.318113811412	0
859	16344.84958568848	1025.244618847297	0
860	16343.84694981054	1025.318129327513	0
861	16344.84957190913	1025.244627034446	0
862	16344.849605888	1025.244620559462	0
863	16372.77720025226	1021.796630288766	0
864	16372.77718664557	1021.796632009171	0
865	16373.76307966599	1021.607947831697	0
866	16372.77722409138	1021.796627898879	0
867	16373.76317637006	1021.607937449539	0
868	16373.76315242724	1021.607940252515	0
869	16393.67565214794	1018.694490555305	0
870	16393.67561355075	1018.694494067642	0
871	16394.68136757713	1018.683263669495	0
872	16393.67558222327	1018.694493700166	0
873	16394.68141336367	1018.683259946714	0
874	16394.68136757812	1018.683263669427	0
875	16399.70298429689	1018.887426299254	0
876	16399.70305385947	1018.88742024338	0
877	16400.69594952032	1019.038813975268	0
878	16399.70296728264	1018.887417356594	0
879	16400.69595269512	1019.038810482814	0
880	16400.69594797473	1019.038813822937	0
881	16403.67493586511	1019.486595159259	0
882	16403.67494896653	1019.486600072416	0
883	16404.66121169669	1019.673087814906	0
884	16403.67504922782	1019.486609864782	0
885	16404.66117235684	1019.673080278612	0
886	16404.66118600062	1019.673082794643	0
887	16425.27061030517	1024.157553294088	0
888	16425.2707472296	1024.157576301639	0
889	16426.23363499964	1024.437851199241	0
890	16425.27074140622	1024.157584385097	0
891	16426.23349481013	1024.437835825595	0
892	16426.23362735867	1024.437850693917	0
893	16532.28429807537	1031.451496703326	0
894	16532.28429843913	1031.4514953466	0
895	16533.24730170521	1031.726803498138	0
896	16532.28428776045	1031.451494056802	0
897	16533.24726306031	1031.726795373101	0
898	16533.24725850308	1031.726794610317	0
899	16543.97159856505	1034.255248621014	0
900	16543.97162874738	1034.255252824101	0
901	16544.91092526481	1034.600647727661	0
902	16543.97161528239	1034.255249588704	0
903	16544.9109387266	1034.600649049558	0
904	16544.91092888531	1034.600647161467	0
905	16552.63913535703	1036.698685253594	0
