idx	X	Y	component
0	1000	1020.572041086813	0
1	1014.909278839249	1022.499662782766	0
2	1014.909094212007	1022.499621793011	0
3	1015.842392272437	1022.854084253514	0
4	1014.909359392327	1022.499682773073	0
5	1015.842227461254	1022.854128594435	0
6	1015.842227462251	1022.854128594518	0
7	1085.374117965149	1037.164033408963	0
8	1085.375139982156	1037.164607714611	0
9	1085.565957830169	1037.270293900206	0
10	1085.571808728726	1037.273696097378	0
11	1088.967824776918	1039.255309391388	0
12	1088.966839799064	1039.254736408831	0
13	1089.696798325182	1039.952014392907	0
14	1088.9572295851	1039.247755458337	0
15	1089.694849959592	1039.952656469622	0
16	1089.696083684518	1039.951825763606	0
17	1090.380820263589	1040.988222356223	0
18	1090.363585821979	1040.978542237923	0
19	1090.400577973798	1041.007618997638	0
20	1090.382965099154	1040.988890244395	0
21	1092.968049854122	1041.084368354504	0
22	1092.950204422977	1041.08458019417	0
23	1093.753637122456	1041.974097864522	0
24	1093.748739979523	1041.979077659325	0
25	1092.995016360493	1041.07717737728	0
26	1092.968049853405	1041.084368353807	0
27	1093.762034347625	1041.951707728387	0
28	1093.776342071411	1041.938521478234	0
29	1094.818915606708	1042.092744449516	0
30	1093.761591769149	1041.951398185471	0
31	1094.818284942075	1042.092274882583	0
32	1094.817975567293	1042.092254868002	0
33	1182.020369902686	1054.250987376584	0
34	1182.020221517941	1054.251007911176	0
35	1183.028849833567	1054.335322548038	0
36	1182.020328612073	1054.250976153602	0
37	1183.028787227646	1054.33523331695	0
38	1183.028625315924	1054.335212840199	0
39	1184.03904617689	1054.371809975309	0
40	1184.039094700916	1054.371817554182	0
41	1185.048777009471	1054.367074846083	0
42	1184.040092010895	1054.37197794715	0
43	1185.048717566624	1054.367099770517	0
44	1185.048798601405	1054.367073472949	0
45	1268.534278055786	1049.166144566684	0
46	1268.534413985288	1049.16620474476	0
47	1269.525201809632	1048.9944243472	0
48	1268.534268601599	1049.166147803613	0
49	1269.525649924205	1048.994361823073	0
50	1269.525650176518	1048.994361835701	0
51	1271.514316334516	1048.673232574254	0
52	1271.514389734103	1048.673219698415	0
53	1272.492520284912	1048.439097041389	0
54	1271.51436102826	1048.673228284413	0
55	1272.492528507589	1048.439095774704	0
56	1272.492511620805	1048.439098876639	0
57	1458.571563780512	1027.811719492982	0
58	1458.571413970761	1027.811861045422	0
59	1459.576968707279	1027.77469154761	0
60	1458.571605826718	1027.811712546666	0
61	1459.576946214971	1027.774672521386	0
62	1459.5769829974	1027.774692866245	0
63	1468.632228865697	1027.749754773661	0
64	1468.632216703702	1027.749754658146	0
65	1469.637926560203	1027.758052132368	0
66	1468.632244953955	1027.749744439161	0
67	1469.637784782205	1027.75792446538	0
68	1469.637909830257	1027.758049983694	0
69	1510.63369427838	1032.370116665559	0
70	1510.633754776034	1032.370126323477	0
71	1511.637766090964	1032.413790189828	0
72	1510.633848615389	1032.370121586946	0
73	1511.637764030252	1032.413785341817	0
74	1511.637790458034	1032.41379038127	0
75	1548.848248824906	1032.88377874798	0
76	1548.848248823907	1032.883778747988	0
77	1549.848683872259	1032.982584893167	0
78	1548.84837702038	1032.883751937618	0
79	1549.848733100558	1032.98253984387	0
80	1549.848700928533	1032.982586789338	0
81	1665.71808663255	1046.507765968002	0
82	1665.71825149445	1046.507758363447	0
83	1666.71591858727	1046.636056148967	0
84	1665.718108023068	1046.507774165981	0
85	1666.715941130999	1046.636076845785	0
86	1666.715980573478	1046.636083625895	0
87	1673.549165531479	1048.347681531994	0
88	1673.549165530479	1048.347681531968	0
89	1674.534916348347	1048.542671037128	0
90	1673.549208144396	1048.347684650228	0
91	1674.534852070238	1048.542701186992	0
92	1674.535070865973	1048.542684512516	0
93	1743.426393628955	1057.507794368203	0
94	1743.426371549549	1057.507795055163	0
95	1744.432171309142	1057.553449477925	0
96	1743.426361572042	1057.507806336027	0
97	1744.432338392955	1057.553486385896	0
98	1744.432164682371	1057.553441574475	0
99	1748.452109483855	1057.351480753368	0
100	1748.452242787817	1057.351500188104	0
101	1749.449266374947	1057.234828246515	0
102	1748.452223177178	1057.351477501609	0
103	1749.449261922409	1057.23480271639	0
104	1749.449251059061	1057.23480691047	0
105	1831.656009744159	1049.836033723944	0
106	1831.65500033623	1049.836007366077	0
107	1832.634876260152	1049.599425373279	0
108	1831.656044228044	1049.836031976282	0
109	1832.637615329732	1049.599705058453	0
110	1832.63764134961	1049.599750148975	0
111	1875.492580064016	1050.875599273024	0
112	1875.492009158191	1050.875578936836	0
113	1875.504854544243	1050.876465745381	0
114	1875.504889331022	1050.876468171827	0
115	1918.986500657033	1055.069026040405	0
116	1918.986522049816	1055.069023662467	0
117	1919.979367042075	1054.906811058265	0
118	1918.98723675053	1055.069108702532	0
119	1919.980093153338	1054.906861398308	0
120	1919.979475008275	1054.906816791703	0
121	1933.073185691609	1054.891966465322	0
122	1933.072937452482	1054.89203063367	0
123	1934.076115009108	1054.815664839408	0
124	1933.073246019884	1054.891965987587	0
125	1934.076289214077	1054.815593587464	0
126	1934.076486755012	1054.815585617607	0
127	1962.853022095115	1049.592175864198	0
128	1962.853026837241	1049.592178419835	0
129	1963.848683492397	1049.448699654376	0
130	1962.853046750697	1049.592186509582	0
131	1963.848715385197	1049.448699784406	0
132	1963.848683493397	1049.44869965438	0
133	2021.047914554512	1037.352711964208	0
134	2021.04790984007	1037.352711823696	0
135	2022.045471366989	1037.221237965671	0
136	2021.047952831158	1037.352689026594	0
137	2022.045599401453	1037.221229908185	0
138	2022.045618054246	1037.221228003468	0
139	2027.942164756958	1035.437244014333	0
140	2027.938771979983	1035.43885873158	0
141	2027.968385189712	1035.42502358992	0
142	2027.942254535972	1035.437262602883	0
143	2131.396429916549	1027.105256779844	0
144	2131.396472322444	1027.105252153497	0
145	2132.399747831922	1027.172421442098	0
146	2131.396499657626	1027.105229080035	0
147	2132.399875310782	1027.172377867118	0
148	2132.399735163037	1027.172425372035	0
149	2268.115693518056	1035.379489784621	0
150	2268.11495697261	1035.379578953638	0
151	2269.123174244031	1035.437067212582	0
152	2268.115732973	1035.379489631157	0
153	2269.12331442861	1035.437017446672	0
154	2269.123270546756	1035.437053374032	0
155	2305.065838853084	1030.377227003911	0
156	2305.06573877186	1030.377231579571	0
157	2306.045539770379	1030.175254778391	0
158	2305.066004573473	1030.377205847136	0
159	2306.045218883481	1030.175285361737	0
160	2306.045517052582	1030.175257198461	0
161	2325.505589795612	1028.277627288605	0
162	2325.487447206679	1028.278532733947	0
163	2325.512496016742	1028.277102186167	0
164	2325.505630602818	1028.277622899602	0
165	2368.89036029308	1023.617578388471	0
166	2368.890200137031	1023.617578237311	0
167	2369.89293456925	1023.503467762263	0
168	2368.890284127182	1023.61758734227	0
169	2369.892996487755	1023.503525441315	0
170	2369.893097965242	1023.503521244911	0
171	2371.909786705057	1023.504585058352	0
172	2371.909648046747	1023.50460652179	0
173	2372.91717448431	1023.575633772849	0
174	2371.909740122544	1023.504583700125	0
175	2372.917374892904	1023.575629244967	0
176	2372.917189382494	1023.575612422757	0
177	2393.049631876217	1025.078452916387	0
178	2393.049807527472	1025.078474514568	0
179	2394.043910916356	1025.235458976956	0
180	2393.050245206733	1025.07835316515	0
181	2394.044174410728	1025.235440398263	0
182	2394.044574822507	1025.235558215547	0
183	2433.176901601376	1035.37441048975	0
184	2433.177087352602	1035.375330962735	0
185	2434.171570101349	1035.482166136374	0
186	2433.176842856108	1035.374372792323	0
187	2434.172151738673	1035.4820251499	0
188	2434.172134200898	1035.482019300328	0
189	2486.605020176729	1044.085620688234	0
190	2486.510408632609	1044.070491897524	0
191	2486.705886161722	1044.194553205288	0
192	2486.711770921078	1044.19801638586	0
193	2486.359911275863	1044.082649982257	0
194	2486.543976706575	1044.125732717873	0
195	2486.611894235323	1044.082219395658	0
196	2486.612164000717	1044.082247502111	0
197	2570.689882670705	1040.020860462792	0
198	2570.689754333777	1040.020865349141	0
199	2571.679893359584	1040.187448357974	0
200	2570.691141847197	1040.020666996709	0
201	2571.680266821732	1040.187429626964	0
202	2571.679984371927	1040.187445511816	0
203	2630.686286258946	1047.290084516907	0
204	2630.686293625596	1047.290084563045	0
205	2631.682578787137	1047.435588266412	0
206	2630.687699421927	1047.290062011373	0
207	2631.683014418147	1047.435614949369	0
208	2631.682644160137	1047.435588686025	0
209	2662.712994153776	1051.264532930786	0
210	2662.713049464487	1051.264543683137	0
211	2663.719889653611	1051.259258054651	0
212	2662.713454747571	1051.26464152746	0
213	2663.719782291837	1051.259289143858	0
214	2663.719975735706	1051.259253317608	0
215	2666.739231380279	1051.126355953272	0
216	2666.739231381273	1051.126355953385	0
217	2667.738003901048	1051.009450727659	0
218	2666.739190157298	1051.126389805604	0
219	2667.7379887881	1051.009486265571	0
220	2667.737880371406	1051.009456952678	0
221	2706.57978250808	1044.812148051778	0
222	2706.579782250934	1044.812148117741	0
223	2707.58494254082	1044.741797086146	0
224	2706.579845759117	1044.812126471338	0
225	2707.585076593202	1044.741801185435	0
226	2707.585180334482	1044.741772052528	0
227	2777.755155460994	1035.588443066068	0
228	2777.589596501666	1035.589888563172	0
229	2777.787660328942	1035.586257218651	0
230	2777.755404825187	1035.588443253115	0
231	2794.068102232727	1036.962711839841	0
232	2794.068064825358	1036.962703808138	0
233	2794.093087695691	1036.972958895568	0
234	2794.097847702618	1036.975063459249	0
235	2858.345010461931	1044.15062310702	0
236	2858.345104678246	1044.150631548468	0
237	2859.311202518253	1044.433209625552	0
238	2858.34512528399	1044.150581753362	0
239	2859.313152854068	1044.434069352665	0
240	2859.311267306788	1044.433199452742	0
241	2912.126118851457	1052.371604813284	0
242	2912.126014279277	1052.371602880272	0
243	2913.121861899953	1052.51737731606	0
244	2912.126165832037	1052.371638054854	0
245	2913.121705482664	1052.517433252958	0
246	2913.121915475912	1052.517380887029	0
247	3081.044588985775	1046.373819230081	0
248	3081.044581270395	1046.373819812127	0
249	3082.042668868793	1046.496909752629	0
250	3081.04465567415	1046.373808522966	0
251	3082.042682765149	1046.496900031687	0
252	3082.042744755522	1046.496905561398	0
253	3140.238237674352	1051.975169115721	0
254	3140.238266482941	1051.975161349835	0
255	3141.244962243465	1051.95191479479	0
256	3140.238345466476	1051.975199337039	0
257	3141.244919309009	1051.951949700717	0
258	3141.245079742517	1051.951910597247	0
259	3146.270766769355	1051.603541108266	0
260	3146.270748599348	1051.603538406596	0
261	3147.273500749722	1051.520651175554	0
262	3146.271016575743	1051.603547056254	0
263	3147.273963340773	1051.520712771769	0
264	3147.273771080816	1051.520642645474	0
265	3243.872407915257	1037.078664304652	0
266	3243.87246732534	1037.078669943178	0
267	3244.854173808475	1036.859664592205	0
268	3243.872499002823	1037.078670492894	0
269	3244.854322963881	1036.859640032495	0
270	3244.854125217059	1036.859664553664	0
271	3259.825502596117	1034.933889818117	0
272	3259.825498635512	1034.933900077635	0
273	3260.799146314834	1034.683168947445	0
274	3259.825482508419	1034.933924335965	0
275	3260.799057517826	1034.68317547487	0
276	3260.799146315833	1034.683168947487	0
277	3271.667772695886	1032.572855937231	0
278	3271.667739618196	1032.572860266537	0
279	3272.662696355924	1032.414793679883	0
280	3271.667653598298	1032.572851808701	0
281	3272.662966571767	1032.414715078375	0
282	3272.66296520587	1032.414782188786	0
283	3273.668361743243	1032.354131791545	0
284	3273.668325018758	1032.354138885029	0
285	3274.675301447991	1032.32292008656	0
286	3273.668340115593	1032.35413193133	0
287	3274.675413410063	1032.322780851946	0
288	3274.675355235752	1032.322927157584	0
289	3275.683687924511	1032.341071885444	0
290	3275.683717837111	1032.341069253634	0
291	3276.68895563938	1032.395228462006	0
292	3275.683628941046	1032.341050630044	0
293	3276.689061813385	1032.395204786851	0
294	3276.689044276205	1032.395230236132	0
295	3296.659796558703	1035.213922344243	0
296	3296.659745789256	1035.213923658739	0
297	3297.654155531981	1035.369433694331	0
298	3296.660314279587	1035.213967714355	0
299	3297.654378818831	1035.369487189378	0
300	3297.654391455584	1035.369485179051	0
301	3333.76155614508	1038.334891387473	0
302	3333.761648894724	1038.334879046	0
303	3334.745181537321	1038.55742568265	0
304	3333.761768027244	1038.334873292572	0
305	3334.745182080421	1038.55742705519	0
306	3334.745174971086	1038.557428132748	0
307	3388.028241532512	1049.550887018523	0
308	3388.028191749536	1049.550877708836	0
309	3388.961961651357	1049.917455406392	0
310	3388.027809138532	1049.55107369759	0
311	3388.963372603901	1049.928003686109	0
312	3388.961999024309	1049.917459060409	0
313	3443.687297791105	1058.369383823297	0
314	3443.68741971465	1058.36939147814	0
315	3444.686171130407	1058.278999434236	0
316	3443.687307212884	1058.36938732501	0
317	3444.686056745924	1058.278994186169	0
318	3444.686080155093	1058.278993419828	0
319	3832.693755448419	1043.964197604375	0
320	3832.694220185272	1043.964189954368	0
321	3833.686687369925	1044.121597632271	0
322	3832.694372402694	1043.964188355891	0
323	3833.686741969902	1044.121672714564	0
324	3833.686697799555	1044.121602466572	0
325	3900.815807480419	1036.155380600934	0
326	3900.815889038206	1036.155382788189	0
327	3901.799725198394	1036.37062544861	0
328	3900.816003259569	1036.155180987447	0
329	3901.799944616335	1036.370583136259	0
330	3901.799685133607	1036.370618821552	0
331	4003.762539356236	1051.506962314535	0
332	4003.762409433296	1051.507012283202	0
333	4004.762596019489	1051.638502031324	0
334	4003.762541982943	1051.506962152837	0
335	4004.762753052277	1051.638506748684	0
336	4004.762753051277	1051.638506748688	0
337	4069.155477557767	1045.956777057834	0
338	4069.155503104123	1045.956779406001	0
339	4070.162464646142	1045.992122046173	0
340	4069.155207778566	1045.95672576573	0
341	4070.162741119649	1045.99200695502	0
342	4070.162502251018	1045.992112452313	0
343	4147.544465382169	1053.294438206133	0
344	4147.544287282138	1053.294449107198	0
345	4148.540632822927	1053.253063536342	0
346	4147.544757195794	1053.294449490887	0
347	4148.542970075295	1053.253182223058	0
348	4148.543016601138	1053.25320073883	0
349	4162.61879145533	1054.718037856133	0
350	4162.618202199777	1054.718282077967	0
351	4163.6190432618	1054.767405167998	0
352	4162.618665340431	1054.718037450263	0
353	4163.619493803433	1054.767412019124	0
354	4163.61913789017	1054.767387421647	0
355	4176.500525023807	1055.375574992154	0
356	4176.479480159271	1055.375643629525	0
357	4176.509859069944	1055.375622386481	0
358	4176.500656807378	1055.375584833622	0
359	4242.539189918644	1046.123572409224	0
360	4242.538704622732	1046.123656539198	0
361	4243.547031147624	1045.957054173085	0
362	4242.539905239266	1046.123541022926	0
363	4243.546821462102	1045.957010609939	0
364	4243.547034574106	1045.956994882876	0
365	4258.373391805158	1042.427949357402	0
366	4258.373429342957	1042.427982629471	0
367	4259.364245334099	1042.208554110378	0
368	4258.373537068328	1042.427925228097	0
369	4259.363925571177	1042.208610838236	0
370	4259.364394550714	1042.208529855601	0
371	4260.368877001954	1042.033905084602	0
372	4260.369066878777	1042.033746458107	0
373	4261.326922359704	1041.722345629535	0
374	4260.369073216687	1042.033913208446	0
375	4261.327509659038	1041.722424133573	0
376	4261.32753484048	1041.722414160894	0
377	4396.890896310721	1034.331995558482	0
378	4396.893206279682	1034.331793488404	0
379	4397.916687489981	1034.344741519512	0
380	4396.892516795904	1034.331901544045	0
381	4397.915758334635	1034.344933414381	0
382	4397.914984727439	1034.34500757031	0
383	4568.174527780473	1046.063356537768	0
384	4568.173913688041	1046.065320603981	0
385	4569.133307604221	1045.788070094897	0
386	4568.17523234499	1046.06438332224	0
387	4569.138446046332	1045.789685930367	0
388	4569.134094740759	1045.78787321654	0
389	4576.219087553123	1049.985833953881	0
390	4576.331697513338	1049.812637361858	0
391	4576.02246047129	1050.620859111211	0
392	4576.021629812397	1050.620431285359	0
393	4576.121285621814	1050.371581373179	0
394	4576.221563202655	1049.98397956909	0
395	4575.869508692849	1050.08827989812	0
396	4575.867856951348	1050.091994426134	0
397	4575.107346242773	1050.477514126319	0
398	4575.108707384083	1050.479035010375	0
399	4576.760871683196	1049.621604855399	0
400	4576.760108905121	1049.620232878418	0
401	4576.810676014752	1049.452733895081	0
402	4576.811901157574	1049.452159793723	0
403	4600.517764016779	1037.743803570473	0
404	4600.517191265856	1037.743882493385	0
405	4601.46947332188	1037.29646525683	0
406	4600.577371820013	1037.717677321461	0
407	4601.481665324097	1037.290351074895	0
408	4601.48224383264	1037.290175357675	0
409	4614.511954644664	1032.807267504115	0
410	4614.513805369378	1032.806165422869	0
411	4615.522533863958	1032.472542929934	0
412	4614.525250638038	1032.804467720846	0
413	4615.523643586589	1032.472267788475	0
414	4615.521073169864	1032.472929150762	0
415	4618.411486126184	1031.283486099953	0
416	4618.411045743784	1031.283625281495	0
417	4619.384562569438	1030.901560913667	0
418	4618.411298904934	1031.283532692257	0
419	4619.386161542791	1030.900919852529	0
420	4619.385306568336	1030.901281117475	0
421	4625.332772848314	1028.939713262327	0
422	4625.333783741067	1028.939447943628	0
423	4626.283613218037	1028.516275300141	0
424	4625.333574846855	1028.939794809088	0
425	4626.285329110204	1028.516268049171	0
426	4626.283685883953	1028.516305191983	0
427	4641.998806198794	1022.8391889889	0
428	4641.998999118814	1022.839107352598	0
429	4642.977343794239	1022.471463987951	0
430	4642.000773453149	1022.838672465886	0
431	4642.981457359723	1022.470470974221	0
432	4642.977139535563	1022.471545875641	0
433	4658.804373341776	1016.790051525407	0
434	4658.805607989737	1016.789565144821	0
435	4659.781035397922	1016.395640431117	0
436	4658.805391983143	1016.789732008172	0
437	4659.78047202106	1016.39591825694	0
438	4659.780717290904	1016.395660166699	0
439	4700.471751573777	1000.708684774267	0
440	4700.476678200211	1000.708779737703	0
441	4701.484590571853	1000.721897874565	0
442	4700.252982149987	1000.000000000975	0
443	4701.483844621043	1000.718903272611	0
444	4701.487685691882	1000.719717847343	0
445	4720.070385912069	1004.142115928829	0
446	4720.037726755198	1004.133676306076	0
447	4721.231502111162	1004.389030811712	0
448	4720.069200293819	1004.141827477397	0
449	4721.255067886465	1004.394523215745	0
450	4721.253904838647	1004.394275426483	0
451	4733.188703318252	1007.234495611206	0
452	4733.190110148499	1007.23478217048	0
453	4734.326924761368	1007.48613589811	0
454	4733.19081945718	1007.233937098767	0
455	4734.334540319008	1007.485713672433	0
456	4734.32761717502	1007.486340564195	0
457	4751.341027118814	1012.728131045659	0
458	4751.343656952257	1012.728464516695	0
459	4752.493918681999	1012.960443285462	0
460	4752.4956893329	1012.96046806803	0
461	4860.391285711	1019.534090629595	0
462	4752.507151631523	1012.964719502047	0
463	4700.252982149766	1000	0
464	4860.391160333734	1019.534072590586	0
465	4862.361360680187	1020.145293096451	0
466	4860.391821367551	1019.534253561804	0
467	4862.363004320011	1020.145850431044	0
468	4862.364656016378	1020.145833931969	0
469	4874.501889345855	1022.400418123629	0
470	4874.501955208033	1022.400435854582	0
471	4875.481198660215	1022.733555874267	0
472	4874.505522065542	1022.400162479221	0
473	4875.481746092848	1022.733504962477	0
474	4875.481092606403	1022.733540287705	0
475	4885.090686335433	1026.350657857531	0
476	4885.090393066767	1026.350598058063	0
477	4886.06402232513	1026.643895118241	0
478	4885.090731705634	1026.350688974316	0
479	4886.064728436824	1026.643852858699	0
480	4886.064824179673	1026.643866787613	0
481	4938.018109803822	1032.395744573573	0
482	4938.027499486838	1032.405611845165	0
483	4938.007182134982	1032.384002248336	0
484	4938.01818569975	1032.39575354186	0
485	5111.276826902793	1030.8337648618	0
486	5111.27786010798	1030.833513195276	0
487	5112.21428340428	1031.199030527263	0
488	5111.276995886022	1030.833772406117	0
489	5112.214140183283	1031.199042214274	0
490	5112.21431887189	1031.199040986739	0
491	5202.718919041806	1044.629995966223	0
492	5202.719066369583	1044.629995881675	0
493	5203.693695633858	1044.363541077473	0
494	5202.720337650231	1044.630219437366	0
495	5203.694054754059	1044.363551702388	0
496	5203.693695634848	1044.363541077613	0
497	5221.899531018289	1044.784626748867	0
498	5221.900240392952	1044.784747761157	0
499	5222.907119051022	1044.787789607553	0
500	5221.89973471038	1044.78463267845	0
501	5222.909927662407	1044.787656420044	0
502	5222.909971595139	1044.787657010444	0
503	5227.941143306842	1044.310421041419	0
504	5227.941270439358	1044.310428724229	0
505	5228.871426401669	1043.922026861335	0
506	5227.941331234591	1044.31042186273	0
507	5228.871883470563	1043.922050628586	0
508	5228.871669127005	1043.922049367666	0
509	5347.821911152943	1035.769100618548	0
510	5347.821806035288	1035.76908748499	0
511	5348.822539498393	1035.859795997854	0
512	5347.822257774454	1035.769660026862	0
513	5348.822056613673	1035.860334302391	0
514	5348.822416519901	1035.860310461729	0
515	5454.590631515007	1052.4221095497	0
516	5454.59029964609	1052.422160615308	0
517	5455.595132587513	1052.36799795268	0
518	5454.590631514006	1052.422109549675	0
519	5455.595409017499	1052.367963395916	0
520	5455.595373651509	1052.36799239697	0
521	5458.61756356854	1052.157539429456	0
522	5458.617513880644	1052.15758068606	0
523	5459.612947195071	1052.019933501002	0
524	5458.617636238271	1052.157531434557	0
525	5459.613172681729	1052.019956549536	0
526	5459.613240657521	1052.019949954785	0
527	5513.616529448805	1044.781721496885	0
528	5513.61655160812	1044.781646207257	0
529	5514.580170320616	1044.492906695907	0
530	5513.616610450841	1044.781714435201	0
531	5514.57984702701	1044.492986501518	0
532	5514.580159191922	1044.492926306403	0
533	5670.993574396482	1050.402167301031	0
534	5670.993631360832	1050.402170787308	0
535	5671.022091137916	1050.39913471132	0
536	5671.024888798534	1050.398797379495	0
537	5709.54954078319	1041.294289218471	0
538	5709.549556476048	1041.294288975598	0
539	5710.546903700325	1041.16757626868	0
540	5709.549895209556	1041.29433877187	0
541	5710.546678768629	1041.167649983627	0
542	5710.546994992302	1041.167635608359	0
543	5866.477719030512	1037.162565325298	0
544	5866.47775907608	1037.162574815581	0
545	5867.480631277222	1037.265025989472	0
546	5866.478570754989	1037.16186714961	0
547	5867.480290782639	1037.264964442873	0
548	5867.480750540607	1037.265032922582	0
549	5885.463602122405	1039.417330965995	0
550	5885.463491535409	1039.41726469021	0
551	5886.453956979549	1039.590504824783	0
552	5885.463865534553	1039.417353927818	0
553	5886.453906912238	1039.590504433761	0
554	5886.453886026225	1039.590501788594	0
555	5948.025863199875	1050.100169434539	0
556	5948.026002811517	1050.100236342253	0
557	5949.034372504392	1050.114573905716	0
558	5948.026022874343	1050.100180725299	0
559	5949.034169621365	1050.114529040093	0
560	5949.034272640238	1050.114528217073	0
561	6151.89763389782	1031.92610047568	0
562	6151.897465112481	1031.925931103849	0
563	6152.899367902665	1031.892979532666	0
564	6151.897937494511	1031.926139832794	0
565	6152.899812258565	1031.893150443873	0
566	6152.899728103715	1031.893137899772	0
567	6166.824293122313	1034.401431258084	0
568	6166.810632268393	1034.399634034806	0
569	6166.858718151991	1034.405641369447	0
570	6166.827439003252	1034.401850355178	0
571	6193.383609419325	1040.763334321703	0
572	6193.382740995932	1040.763032950687	0
573	6194.387872556329	1040.831650415708	0
574	6193.383592789746	1040.763333045912	0
575	6194.388085919867	1040.831698886649	0
576	6194.387910316775	1040.831655699072	0
577	6205.274696345815	1042.833882965753	0
578	6205.274754260571	1042.833891762575	0
579	6206.275866553088	1042.928424632682	0
580	6205.274804859697	1042.833834915995	0
581	6206.275001222857	1042.927602942552	0
582	6206.275105262828	1042.927600511696	0
583	6367.302564100102	1046.525759438545	0
584	6367.302352494496	1046.525760457019	0
585	6368.250925379283	1046.1890383136	0
586	6367.302986400871	1046.526005699328	0
587	6368.251219207396	1046.189133841913	0
588	6368.250969035007	1046.18902667346	0
589	6370.224223924763	1045.783923659061	0
590	6370.224177802745	1045.783937373676	0
591	6371.224755618952	1045.673912459394	0
592	6370.224236342567	1045.783920882781	0
593	6371.224737441445	1045.67390047285	0
594	6371.224723315498	1045.673903073812	0
595	6404.807772906459	1039.178236628451	0
596	6404.807829954237	1039.178265088683	0
597	6405.790939860544	1038.963482039992	0
598	6404.80789413513	1039.178210579604	0
599	6405.790987072845	1038.963484843526	0
600	6405.790948367449	1038.963476513849	0
601	6436.303801678533	1032.520732974546	0
602	6436.303777149877	1032.520722270123	0
603	6437.303542425167	1032.403333292231	0
604	6436.303714574524	1032.520733674291	0
605	6437.303725900012	1032.403371279139	0
606	6437.30374565998	1032.40334032371	0
607	6444.209108588492	1031.01662927803	0
608	6444.209124489435	1031.016629083788	0
609	6445.179240619952	1030.751019565944	0
610	6444.209119308236	1031.016629430188	0
611	6445.179551912101	1030.750853823719	0
612	6445.179227866767	1030.751023339216	0
613	6490.063583232063	1024.654392647355	0
614	6490.063577524071	1024.654392952951	0
615	6491.064793223741	1024.746087780962	0
616	6490.063731122465	1024.654323604318	0
617	6491.06508762908	1024.745991167732	0
618	6491.064793230004	1024.746082626589	0
619	6745.323202291193	1032.652866858552	0
620	6745.323389517363	1032.65285604099	0
621	6746.268513468102	1032.997635644648	0
622	6745.323290170684	1032.652873080956	0
623	6746.268542035036	1032.997642418838	0
624	6745.323379122476	1032.652739669376	0
625	6746.269529398521	1032.997499164505	0
626	6746.268484708832	1032.99763357214	0
627	6750.115471969242	1034.177750955024	0
628	6750.115471970214	1034.177750955262	0
629	6751.089031069911	1034.442062794912	0
630	6750.115956701588	1034.177690948562	0
631	6751.098976102035	1034.418974159969	0
632	6751.088972878877	1034.4420476244	0
633	6819.179985799576	1048.507453262669	0
634	6819.179883398006	1048.507560760813	0
635	6820.16262316932	1048.72129490349	0
636	6819.179983837827	1048.507453268823	0
637	6820.162682109942	1048.721213610097	0
638	6820.162702647396	1048.721303290288	0
639	6830.202470967985	1049.462631499603	0
640	6830.20250079256	1049.462661507864	0
641	6831.208288660404	1049.508009390965	0
642	6830.202449649427	1049.462630148329	0
643	6831.208390906613	1049.507961009333	0
644	6831.208414607147	1049.507964248621	0
645	6891.250275097152	1043.308793321127	0
646	6891.250233036804	1043.308803136814	0
647	6892.228852217438	1043.082836816526	0
648	6891.250271432295	1043.308797520381	0
649	6892.228895414783	1043.082841268932	0
650	6892.228851144793	1043.082837478923	0
651	7099.982899766709	1038.981569358855	0
652	7099.982918193765	1038.981590012481	0
653	7100.976455897188	1038.841510999271	0
654	7099.982937897106	1038.98156652102	0
655	7100.976530694822	1038.841518723604	0
656	7100.976493681062	1038.841510903925	0
657	7206.328046434398	1022.404673231131	0
658	7206.328183530724	1022.404680338246	0
659	7207.326933026829	1022.284220440579	0
660	7206.328015195676	1022.404663034116	0
661	7207.326971665741	1022.284195119703	0
662	7207.326933027825	1022.284220440489	0
663	7574.687403945962	1029.495607757728	0
664	7574.687438177752	1029.495611953238	0
665	7575.67968844328	1029.634843013698	0
666	7574.687430393533	1029.495576713098	0
667	7575.679765908943	1029.634809909954	0
668	7575.679688444277	1029.634843013772	0
669	7597.360830385608	1033.895591339001	0
670	7597.360850144351	1033.89557018738	0
671	7598.333665995541	1034.150226150802	0
672	7597.360867788891	1033.895591603308	0
673	7598.333674005513	1034.150214187498	0
674	7598.33367020548	1034.150212447775	0
675	7668.815135122559	1045.536667149821	0
676	7668.815209770532	1045.53668126954	0
677	7669.803914376374	1045.709265282374	0
678	7668.815270878402	1045.536676628228	0
679	7669.80389208815	1045.709258774455	0
680	7669.803887288664	1045.709253398277	0
681	7711.028704931343	1045.110570753941	0
682	7711.028820346678	1045.110585105791	0
683	7712.032189753595	1045.167651739128	0
684	7711.028691263918	1045.110569948125	0
685	7712.032098125209	1045.167639956502	0
686	7712.032097943516	1045.167639961351	0
687	7746.929336028238	1040.543839737236	0
688	7746.929404077775	1040.543812656801	0
689	7747.930407603667	1040.452596297601	0
690	7746.929381803877	1040.543836558856	0
691	7747.930380918873	1040.452613687142	0
692	7747.93059881827	1040.452615740775	0
693	7837.147694553341	1047.43213320763	0
694	7837.14773876426	1047.432129624849	0
695	7838.145460811455	1047.312468424698	0
696	7837.147845402103	1047.432190829801	0
697	7838.145977011472	1047.312511773756	0
698	7838.145473942102	1047.312464975495	0
699	7937.206645604384	1036.907241252315	0
700	7937.206784058329	1036.907226126201	0
701	7938.211982419986	1036.875738311006	0
702	7937.206730982506	1036.907223880359	0
703	7938.211861246945	1036.875716053317	0
704	7938.211868028515	1036.875728420292	0
705	7995.054041865661	1044.40315026951	0
706	7995.054055854808	1044.403150190467	0
707	7996.030381169334	1044.640140639789	0
708	7995.054056238936	1044.403152318135	0
709	7996.030208630415	1044.640116065731	0
710	7996.030359916545	1044.640130445701	0
711	8014.068129757055	1046.047851362643	0
712	8014.068152265318	1046.0478844624	0
713	8015.064441445241	1046.170096651606	0
714	8014.068130065613	1046.047844238322	0
715	8015.064586073699	1046.170003279164	0
716	8015.064605661794	1046.170002784345	0
717	8119.623912893287	1031.333823813623	0
718	8119.62385420582	1031.333790480566	0
719	8120.623440819806	1031.251644811349	0
720	8119.62395991095	1031.333820640937	0
721	8120.623750390572	1031.251852181162	0
722	8120.623843117164	1031.251853637107	0
723	8279.198257320539	1035.80992128352	0
724	8279.198252174068	1035.809917725549	0
725	8280.17145043488	1036.050542190173	0
726	8279.198360977713	1035.809924630974	0
727	8280.171410022143	1036.05054139191	0
728	8280.171653411611	1036.050541662626	0
729	8494.320357117642	1055.449219111357	0
730	8494.32044850194	1055.449227935784	0
731	8495.317542302802	1055.559580979296	0
732	8494.32038184277	1055.449221020743	0
733	8495.317425467651	1055.559581140895	0
734	8495.317534829348	1055.559576113006	0
735	8617.502185995485	1046.464907264839	0
736	8617.502180283376	1046.464907349453	0
737	8618.488907397803	1046.279316807267	0
738	8617.502197148127	1046.464917207758	0
739	8618.488831549283	1046.27933417878	0
740	8618.488897062489	1046.279318299765	0
741	8688.822654307078	1034.292531523905	0
742	8688.822634355234	1034.292537897417	0
743	8689.785998485746	1034.008806144851	0
744	8688.822612431753	1034.292526630324	0
745	8689.785967618334	1034.008806465272	0
746	8689.785952276528	1034.008819299286	0
747	8697.666635791156	1032.453495796148	0
748	8697.666563102628	1032.453500972565	0
749	8698.65589174508	1032.284954873508	0
750	8697.666624936073	1032.453497487514	0
751	8698.655915985762	1032.284979903941	0
752	8698.656004750852	1032.284983153364	0
753	8891.295961679274	1025.812523795193	0
754	8891.295999547903	1025.812527105642	0
755	8892.29893299797	1025.811707781385	0
756	8891.295930956074	1025.812506403982	0
757	8892.298935058414	1025.811655546676	0
758	8892.298888499428	1025.811706625863	0
759	9018.944449585633	1042.256091475071	0
760	9018.944631661418	1042.256107765103	0
761	9019.908607124957	1042.535135053153	0
762	9018.944512451537	1042.256096833624	0
763	9019.908598310172	1042.535121612809	0
764	9019.908579007712	1042.535121645079	0
765	9196.383328736601	1033.313401603405	0
766	9196.383280638387	1033.313408978101	0
767	9197.378044600058	1033.445249743741	0
768	9196.383370799784	1033.313402809533	0
769	9197.378000156794	1033.44524731598	0
770	9197.377996861203	1033.445246574001	0
771	9221.263725017592	1036.412541932068	0
772	9221.263626219323	1036.412534047317	0
773	9222.261941904619	1036.504301139905	0
774	9221.263788146529	1036.412543655638	0
775	9222.261982761556	1036.504334407209	0
776	9222.26195639015	1036.504301644366	0
777	9475.970688076934	1040.442537835405	0
778	9475.970690923692	1040.442545251188	0
779	9476.952393230027	1040.229327509943	0
780	9475.970794450855	1040.442525427458	0
781	9476.952484693897	1040.229315000683	0
782	9476.952412418243	1040.229323182324	0
783	9493.833226153578	1037.654639414192	0
784	9493.833255527106	1037.654635443127	0
785	9494.790256436749	1037.351206451044	0
786	9493.833235947975	1037.654656746584	0
787	9494.790390537602	1037.351190347503	0
788	9494.790416436825	1037.351186597489	0
789	9568.436049967437	1026.862462322814	0
790	9568.436084696947	1026.862460287268	0
791	9569.437114514327	1026.771649189456	0
792	9568.436016326048	1026.862449233315	0
793	9569.437170964555	1026.771618951667	0
794	9569.437087139891	1026.771647109559	0
795	9795.226548290693	1039.245205231854	0
796	9795.226532831015	1039.245205309566	0
797	9796.229133584404	1039.331184660618	0
798	9795.22837978928	1039.245173531064	0
799	9796.229239360524	1039.331198758435	0
800	9796.229163680444	1039.331181466491	0
801	9801.246801539472	1039.536713412212	0
802	9801.246517186404	1039.536761813431	0
803	9802.251752466367	1039.600501711509	0
804	9801.246941901951	1039.53669859023	0
805	9802.251878919518	1039.600443756935	0
806	9802.251878918534	1039.600443757117	0
807	9820.201666257586	1037.036703611386	0
808	9820.201599341712	1037.036706185782	0
809	9821.191429044997	1036.846204461033	0
810	9820.201644573955	1037.036707784983	0
811	9821.191595145947	1036.84622421624	0
812	9821.1913262335	1036.846224402109	0
813	9904.093607832145	1025.371587431793	0
814	9904.094029548565	1025.371570382693	0
815	9905.072783602682	1025.12494567471	0
816	9904.093693909394	1025.37158013457	0
817	9905.073064050106	1025.124907357993	0
818	9905.072773905094	1025.124947202754	0
819	10077.70409667287	1024.119414243504	0
820	10077.67191361131	1024.106650162915	0
821	10076.06343024671	1019.656090257278	0
822	10075.36205689055	1019.709299312959	0
823	10075.55146280261	1019.387679797656	0
824	10075.5516585241	1019.386101695831	0
825	10076.59221534002	1019.880301707189	0
826	10076.06438537723	1019.654810965448	0
827	10077.73306753366	1024.134454477817	0
828	10077.70462157505	1024.119767314689	0
829	10079.54080177107	1025.595997039455	0
830	10079.52909682291	1025.588791121439	0
831	10079.54173737525	1025.602783722089	0
832	10079.54147425912	1025.596246035266	0
833	10080.62984904874	1026.20085520089	0
834	10080.63106419368	1026.201436559789	0
835	10081.99579682889	1026.833729108528	0
836	10080.63951794938	1026.202947675499	0
837	10082.8024376687	1026.950731094381	0
838	10081.99339072963	1026.832851446334	0
839	10082.90824133463	1026.974238601066	0
840	10082.90393601636	1026.97208475364	0
841	10110.13152940036	1033.644693325716	0
842	10110.12950376339	1033.644101879543	0
843	10111.03098939642	1034.158650127355	0
844	10110.12884893127	1033.643916692042	0
845	10111.03048148208	1034.158406334383	0
846	10111.03073650189	1034.158467255545	0
847	10148.97146048811	1041.928378597435	0
848	10148.97154043581	1041.92840810642	0
849	10149.98766353523	1042.057759053675	0
850	10148.97142815061	1041.928371678928	0
851	10149.98732114395	1042.057709314742	0
852	10149.98725199185	1042.057708266624	0
853	10177.81877455524	1047.74044631073	0
854	10177.81856226246	1047.740514975436	0
855	10178.80659944903	1047.980123212903	0
856	10177.81870082507	1047.740456666042	0
857	10178.80708941036	1047.979812676741	0
858	10178.8066802294	1047.979712458115	0
859	10368.42644891717	1052.223028077752	0
860	10368.41146303195	1052.222890877143	0
861	10368.440703382	1052.221367349452	0
862	10368.42639845404	1052.223032108593	0
863	10375.13379246559	1053.098247618391	0
864	10374.97149134583	1053.15594066229	0
865	10375.13614289124	1053.101197356387	0
866	10375.13391916735	1053.098193730645	0
867	10376.00830714962	1052.426742809696	0
868	10376.00757107338	1052.427228590341	0
869	10376.91920935748	1051.975123291284	0
870	10376.00990961	1052.42616184529	0
871	10376.9210783729	1051.975025435835	0
872	10376.9211019772	1051.974983131405	0
873	10379.84714186646	1050.880851992606	0
874	10379.8445807079	1050.88165199407	0
875	10380.83056911125	1050.529248171796	0
876	10379.84794706163	1050.880529028078	0
877	10380.83200044596	1050.528537659391	0
878	10380.83323630831	1050.528037107955	0
879	10381.81820132248	1050.194454058419	0
880	10381.81577987049	1050.196163318424	0
881	10383.00102875099	1049.621810430169	0
882	10381.81397949944	1050.19767890326	0
883	10382.9799157956	1049.534339788865	0
884	10382.98041092625	1049.534660778056	0
885	10382.98637138194	1049.208940982763	0
886	10382.98347194654	1049.423835593902	0
887	10383.01765682191	1049.612347226948	0
888	10383.01939589458	1049.624054689567	0
889	10383.65603497349	1049.926549505691	0
890	10383.65608820671	1049.926539903391	0
891	10465.93304786713	1035.156729589351	0
892	10465.93294574024	1035.156654775912	0
893	10466.91236213862	1034.908699353977	0
894	10465.93305698633	1035.156726945716	0
895	10466.91209668915	1034.908836886864	0
896	10466.91242533793	1034.908802072594	0
897	10473.90131750349	1033.760694157982	0
898	10473.90151450797	1033.760653973292	0
899	10474.8945582443	1033.568272563763	0
900	10473.90130488408	1033.760695016964	0
901	10474.8937400717	1033.568469847838	0
902	10474.89370181626	1033.568478303127	0
903	10499.89216886375	1030.012110318237	0
904	10499.89215638799	1030.012106965615	0
905	10500.88512822477	1029.832519473651	0
906	10499.89229528266	1030.012088953577	0
907	10500.88535307371	1029.83256631674	0
908	10500.88533345962	1029.832560733409	0
909	10512.9406395603	1028.442851848097	0
910	10512.94074017476	1028.442894521446	0
911	10513.95397208817	1028.428142017748	0
912	10512.94062774405	1028.442852192669	0
913	10513.95412870072	1028.42809084643	0
914	10513.95395026703	1028.428148189108	0
915	10544.2591173705	1029.821687584352	0
916	10544.25926618149	1029.821652716133	0
917	10545.27196826432	1029.812227393464	0
918	10544.25910115522	1029.821679584681	0
919	10545.27224432643	1029.812420885098	0
920	10545.27237399003	1029.812424315074	0
921	10659.52231625014	1046.447761610994	0
922	10659.52201726628	1046.447655549894	0
923	10660.44519059057	1046.882589539299	0
924	10659.52231601543	1046.447689590306	0
925	10660.44528258942	1046.882620253454	0
926	10660.44555657224	1046.882620713805	0
927	10693.89010921089	1049.829954954911	0
928	10693.88838435246	1049.82960736201	0
929	10694.89683657183	1046.157360097737	0
930	10694.89684117193	1046.157360077074	0
931	10695.5699738448	1046.945731060889	0
932	10694.89158134015	1046.164197323921	0
933	10695.58529333561	1046.929130366201	0
934	10695.58618725499	1046.926207050261	0
935	10694.03531051869	1049.757285015711	0
936	10694.0367750321	1049.759388415879	0
937	10696.9308641825	1050.404142241326	0
938	10696.93209774508	1050.403719976697	0
939	10697.80537668535	1050.973417004356	0
940	10696.91602645844	1050.402955284148	0
941	10697.80222773978	1050.971940346315	0
942	10697.80428475942	1050.97271349317	0
943	10763.39289924001	1058.29548222016	0
944	10763.37162531968	1058.294951484399	0
945	10763.41445306604	1058.296265582366	0
946	10763.41995945773	1058.296410362997	0
947	10807.30319324168	1058.090424985463	0
948	10807.30233409309	1058.090484615211	0
949	10808.18786476657	1057.608013733037	0
950	10807.30350721492	1058.090441492439	0
951	10808.18870284033	1057.608093558435	0
952	10808.18838533926	1057.6081193524	0
953	11069.02673322079	1040.049161664803	0
954	11069.0267238295	1040.049161046971	0
955	11070.02799027459	1040.100680394405	0
956	11069.0267032325	1040.049146858194	0
957	11070.02812578284	1040.100670188823	0
958	11070.02804206027	1040.100677025845	0
959	11106.1028889185	1042.830828671168	0
960	11106.10292999692	1042.830876960763	0
961	11107.10426469425	1042.764586603068	0
962	11106.10291926498	1042.830828255958	0
963	11107.10427246797	1042.764533781356	0
964	11107.10421535698	1042.76453452721	0
965	11141.17209148452	1039.723066648287	0
966	11141.17212577222	1039.723063760513	0
967	11142.17658819714	1039.71740928964	0
968	11141.17211758269	1039.723065231268	0
969	11142.17666351095	1039.717405712916	0
970	11142.17666350995	1039.717405712953	0
971	11156.1851700079	1041.029201547415	0
972	11156.18532473079	1041.029204879369	0
973	11157.16858861202	1041.239533993172	0
974	11156.18534362177	1041.029183862949	0
975	11157.16874531404	1041.239549611387	0
976	11157.16861811715	1041.239541601047	0
977	11170.09714314589	1043.053641844102	0
978	11170.09723564493	1043.053647999278	0
979	11171.09944765603	1043.111883771009	0
980	11170.09730051003	1043.053651748659	0
981	11171.09941017424	1043.111877675415	0
982	11171.0994403449	1043.111885569957	0
983	11172.09677535986	1043.22677140813	0
984	11172.09715016248	1043.22676729409	0
985	11173.08630415512	1043.398183506181	0
986	11172.09678623108	1043.226770791084	0
987	11173.08630929166	1043.398172211149	0
988	11173.08635254777	1043.398172695025	0
989	11211.15169826306	1046.247226030329	0
990	11211.15167296221	1046.247221134162	0
991	11212.15540739832	1046.198141823011	0
992	11211.15169861915	1046.247226029262	0
993	11212.15537826142	1046.198143986913	0
994	11212.15531313796	1046.198137103159	0
995	11214.1519776865	1045.953050864725	0
996	11214.15214076571	1045.953049455686	0
997	11215.1441717881	1045.793587531003	0
998	11214.15195228926	1045.953055218642	0
999	11215.144100586	1045.793591802015	0
1000	11215.14418996476	1045.793583750284	0
1001	11294.96130100363	1035.492902069707	0
1002	11294.96131226285	1035.492894475885	0
1003	11295.96617979231	1035.461571960116	0
1004	11294.96112680865	1035.492759410099	0
1005	11295.96630447796	1035.461551016064	0
1006	11295.96633410285	1035.461550055464	0
1007	11305.00467619411	1035.882565099016	0
1008	11305.00471650592	1035.882558264002	0
1009	11306.00910066248	1035.860633063868	0
1010	11305.00468684785	1035.882560470224	0
1011	11306.00915351319	1035.860703621493	0
1012	11306.00918574739	1035.860707022677	0
1013	11390.96851391322	1044.344563606747	0
1014	11390.96851391224	1044.344563606962	0
1015	11391.95746585891	1044.510520717977	0
1016	11390.96859307335	1044.344560271522	0
1017	11391.95747696809	1044.510493045015	0
1018	11391.95750074893	1044.510495925459	0
1019	11419.05495856883	1045.135206414606	0
1020	11419.05499875944	1045.135203031141	0
1021	11420.05546436719	1045.200427801861	0
1022	11419.05496918132	1045.13520639342	0
1023	11420.0555531823	1045.20045297527	0
1024	11420.05549491608	1045.200449109448	0
1025	11441.96623862304	1048.068792205892	0
1026	11441.96611762904	1048.069023938765	0
1027	11442.9677712363	1047.997907773448	0
1028	11441.96628266912	1048.068796888795	0
1029	11442.96771436811	1047.997848221774	0
1030	11442.96773537736	1047.997847205594	0
1031	11635.07572209979	1032.917791478772	0
1032	11635.07572161347	1032.917791363034	0
1033	11636.04884620931	1032.675510644349	0
1034	11635.07568218468	1032.917795522938	0
1035	11636.04881190558	1032.675514807688	0
1036	11636.04884113475	1032.675510879702	0
1037	11695.13000450775	1028.335554992416	0
1038	11695.13010969228	1028.335554402706	0
1039	11895.60814354948	1037.284475168801	0
1040	11895.60812234952	1037.284460850489	0
1041	11896.57344336017	1037.554250318334	0
1042	11895.60813721643	1037.284472348625	0
1043	11896.57344246879	1037.554251078831	0
1044	11896.57346172736	1037.554256461409	0
1045	11910.34116758939	1040.342032421246	0
1046	11910.34118259505	1040.342033233336	0
1047	11911.33709084243	1040.466745004449	0
1048	11910.34116233048	1040.342035605406	0
1049	11911.33713111538	1040.466757037892	0
1050	11911.3370497098	1040.466742312138	0
1051	12095.56034113982	1054.934924335881	0
1052	12095.56036254203	1054.934927757911	0
1053	12096.56372808752	1054.949892370363	0
1054	12095.56044000873	1054.935304164572	0
1055	12096.56386650658	1054.949999279952	0
1056	12096.56371489677	1054.949892850249	0
1057	12193.27049229879	1042.769907198155	0
1058	12193.27046186789	1042.769908441662	0
1059	12194.26098237377	1042.61388470127	0
1060	12193.27047963132	1042.769909923652	0
1061	12194.26091102193	1042.613889610205	0
1062	12194.26100407665	1042.613881734207	0
1063	12305.7832449699	1027.699789633264	0
1064	12305.7833934655	1027.699780745593	0
1065	12306.76493255999	1027.905246334603	0
1066	12305.78337066498	1027.699638921258	0
1067	12306.76506528448	1027.905225564424	0
1068	12306.7649345531	1027.905243137321	0
1069	12348.87023947965	1029.676708050005	0
1070	12348.87018682838	1029.676706117378	0
1071	12349.87153804775	1029.629171320351	0
1072	12348.87024052142	1029.676708267208	0
1073	12349.87154273867	1029.62916276472	0
1074	12349.87154730919	1029.629171608896	0
1075	12629.16262925094	1043.122083111894	0
1076	12629.16263483507	1043.122083054561	0
1077	12630.13504982641	1043.363549182174	0
1078	12629.16263851914	1043.122068837502	0
1079	12630.13493306607	1043.363587108753	0
1080	12630.13504656744	1043.36354979513	0
1081	12798.48996045009	1041.378631171046	0
1082	12798.48999893333	1041.378623224962	0
1083	12799.46963620615	1041.591109756027	0
1084	12798.48998915086	1041.378626086452	0
1085	12799.46960564127	1041.59110733184	0
1086	12799.4696200169	1041.591108893359	0
1087	13034.42309184707	1059.630383931226	0
1088	13034.42311423602	1059.63038569884	0
1089	13035.4265842416	1059.623478489427	0
1090	13034.42315560986	1059.630460609299	0
1091	13035.42683245286	1059.623763825743	0
1092	13035.42660905599	1059.623474999874	0
1093	13037.40839448593	1059.291516850319	0
1094	13037.40837087565	1059.291519107746	0
1095	13038.40787114883	1059.21338574077	0
1096	13037.40840006937	1059.29151726847	0
1097	13038.40786957786	1059.213383889806	0
1098	13038.40786175576	1059.213383213031	0
1099	13168.82348832039	1042.999348299319	0
1100	13168.82334823266	1042.999356586753	0
1101	13169.77477389122	1042.683081546249	0
1102	13168.82348864461	1042.999344996883	0
1103	13169.77477418001	1042.683055253741	0
1104	13169.77472823302	1042.683082117548	0
1105	13434.81026724917	1042.809615501957	0
1106	13434.78000065494	1042.824285593055	0
1107	13434.83835853713	1042.796852041934	0
1108	13434.81278686024	1042.808396260198	0
1109	13476.56677313252	1035.580376606002	0
1110	13476.56652361195	1035.580407675135	0
1111	13477.56642725413	1035.642327513045	0
1112	13476.56678233468	1035.58037627501	0
1113	13477.56635596791	1035.642346055705	0
1114	13477.56650525559	1035.642326345613	0
1115	13763.3098537744	1041.213488217514	0
1116	13763.30991802488	1041.213485902862	0
1117	13764.28172181195	1041.456725080703	0
1118	13763.30990737462	1041.213489253353	0
1119	13764.28172831284	1041.45672856569	0
1120	13764.28172831185	1041.456728565516	0
1121	13835.91278551929	1050.765201518998	0
1122	13835.91278883781	1050.765201022288	0
1123	13836.91420419067	1050.820913862508	0
1124	13835.91277998296	1050.765198525701	0
1125	13836.91418444684	1050.820914951439	0
1126	13836.91419471567	1050.820914015312	0
1127	13863.00667270755	1050.532540920345	0
1128	13863.00666989745	1050.532542639617	0
1129	13863.99784149982	1050.693342015946	0
1130	13863.00643742508	1050.532028912048	0
1131	13863.99785427293	1050.693332612376	0
1132	13863.99785131898	1050.693341564301	0
1133	13977.82565785148	1063.13915087597	0
1134	13977.82567903793	1063.139153171084	0
1135	13978.8171965045	1062.986283779455	0
1136	13977.82577842	1063.139256166641	0
1137	13978.81755875251	1062.986306904169	0
1138	13978.81754406891	1062.986303014465	0
1139	14113.09393186229	1054.570584809356	0
1140	14113.09393015259	1054.570617362531	0
1141	14114.09259637548	1054.46676850709	0
1142	14113.0939340026	1054.570584749767	0
1143	14114.09259653098	1054.466535523888	0
1144	14114.09261292235	1054.4663051785	0
1145	14115.07664646745	1054.270925132483	0
1146	14114.09261602317	1054.466534303875	0
1147	14115.07668264084	1054.270918877408	0
1148	14115.07677318048	1054.270912059944	0
1149	14160.61993237465	1046.578399098268	0
1150	14160.61993074167	1046.57840281589	0
1151	14161.60765133906	1046.402724978918	0
1152	14160.61992167405	1046.578400715502	0
1153	14161.60764889331	1046.40272201614	0
1154	14161.60765006229	1046.402727813048	0
1155	14262.46850292943	1035.753378760432	0
1156	14262.46849593326	1035.753343865053	0
1157	14263.47141799491	1035.719628016432	0
1158	14262.46850615943	1035.753376186557	0
1159	14263.47142208708	1035.719635206598	0
1160	14263.47143008954	1035.719633519723	0
1161	14443.72347517959	1048.76859550765	0
1162	14443.72348196681	1048.768593280721	0
1163	14444.72568091266	1048.730034916282	0
1164	14443.72346483809	1048.768602842827	0
1165	14444.72565837058	1048.730038870103	0
1166	14444.72570493847	1048.730033757133	0
1167	14483.75791913646	1045.860379824011	0
1168	14483.75791913744	1045.860379823815	0
1169	14484.7596071101	1045.916359350147	0
1170	14483.75797369181	1045.860376816316	0
1171	14484.75955496537	1045.91635232837	0
1172	14484.75956743151	1045.916358171201	0
1173	14614.92501340304	1055.643847855651	0
1174	14614.92491987517	1055.64386659052	0
1175	14615.92591108685	1055.590488496847	0
1176	14614.92500463714	1055.643847102124	0
1177	14615.92585074425	1055.590487942457	0
1178	14615.9258550674	1055.590487099121	0
1179	14688.77745140065	1047.626865142235	0
1180	14688.77746029009	1047.626865212694	0
1181	14689.75766295345	1047.415126198614	0
1182	14688.77748625649	1047.626867277995	0
1183	14689.75747129365	1047.415110086987	0
1184	14689.75742086144	1047.415113487247	0
1185	14690.7417624493	1047.222745254136	0
1186	14689.75770046913	1047.415118676039	0
1187	14690.74185475691	1047.222736702907	0
1188	14690.74181907158	1047.222742848087	0
1189	14712.51757737609	1043.543986008114	0
1190	14712.51762303891	1043.543811333036	0
1191	14713.51447082848	1043.430917777164	0
1192	14712.51759720097	1043.543984380704	0
1193	14713.51458615278	1043.431171658329	0
1194	14713.51458955336	1043.431171674554	0
1195	14807.85666042002	1044.905522366915	0
1196	14807.85673554883	1044.905527925648	0
1197	14808.85816017233	1044.960745608586	0
1198	14807.85680149367	1044.905465488812	0
1199	14808.85818280645	1044.960628761071	0
1200	14808.85818847795	1044.960747824432	0
1201	14863.47575992511	1053.010509157838	0
1202	14863.47572315224	1053.010502877388	0
1203	14864.46867814806	1053.151178981607	0
1204	14863.47573574306	1053.010506809907	0
1205	14864.46872876979	1053.151185953281	0
1206	14864.4687324274	1053.151183512984	0
1207	15043.92066894111	1061.216676218363	0
1208	15043.9206735119	1061.216715882545	0
1209	15044.91792180032	1061.115262144977	0
1210	15043.92070497895	1061.216675519643	0
1211	15044.91791888644	1061.115245066954	0
1212	15044.91793535197	1061.115243373845	0
1213	15182.43622190156	1043.370745345101	0
1214	15182.4362054117	1043.370745718863	0
1215	15183.43588134494	1043.289138693538	0
1216	15182.43619492575	1043.3707496951	0
1217	15183.4359310219	1043.289150787344	0
1218	15183.43593439045	1043.289149919416	0
1219	15203.48339174879	1044.183550709847	0
1220	15203.48341790377	1044.183549431901	0
1221	15204.48188794221	1044.270534864908	0
1222	15203.48341551027	1044.183548410606	0
1223	15204.48191156377	1044.270535435843	0
1224	15204.48192616473	1044.270536715572	0
1225	15344.5768939575	1053.829531614044	0
1226	15344.57694077349	1053.829542708706	0
1227	15345.57811969209	1053.778098560548	0
1228	15344.57690042072	1053.829530598111	0
1229	15345.57814205929	1053.778089864231	0
1230	15345.57813498639	1053.778090589313	0
1231	15371.50188248376	1051.034014280138	0
1232	15371.50186495013	1051.034002867339	0
1233	15372.50295719569	1050.998130157501	0
1234	15371.50184836994	1051.03401549537	0
1235	15372.50295079483	1050.998135807329	0
1236	15372.50293510306	1050.998130952601	0
1237	15538.91934772819	1053.26250603853	0
1238	15538.91935556584	1053.262509317556	0
1239	15539.91664690414	1053.16039236452	0
1240	15538.91932585076	1053.262515395298	0
1241	15539.91663361921	1053.16039723708	0
1242	15539.91664614298	1053.160391561207	0
1243	15673.24608268425	1035.140213860153	0
1244	15673.24578329437	1035.140125544475	0
1245	15674.2484468016	1035.100540503381	0
1246	15673.24608268325	1035.140213860059	0
1247	15674.24866821376	1035.1006081982	0
1248	15674.24873407099	1035.100614545223	0
1249	15744.18370177096	1039.249372499251	0
1250	15744.19169221916	1039.249906971998	0
1251	15744.33589706922	1039.259625349052	0
1252	15744.32550468785	1039.258921284932	0
1253	15810.12480999225	1044.066387123025	0
1254	15810.12472774057	1044.066385015925	0
1255	15811.12469669975	1044.096718750266	0
1256	15810.12480139886	1044.066387741644	0
1257	15811.12471622131	1044.096711791113	0
1258	15811.12469669881	1044.09671874992	0
1259	15880.06090209078	1038.087685243233	0
1260	15880.06100608082	1038.087673909154	0
1261	15881.05521608521	1037.969008880762	0
1262	15880.06090996736	1038.087685917495	0
1263	15881.05519157535	1037.969026465408	0
1264	15881.05520889154	1037.969025375129	0
1265	16030.31707563314	1043.450339459466	0
1266	16030.31706510397	1043.450339590644	0
1267	16031.31712402136	1043.450394455018	0
1268	16030.31709440827	1043.45033605238	0
1269	16031.31712989179	1043.450393061786	0
1270	16031.31713771477	1043.450392631966	0
1271	16117.1163831438	1031.209828317871	0
1272	16117.10489692482	1031.211944029775	0
1273	16117.12011168929	1031.20918407171	0
1274	16117.11906316685	1031.209316212683	0
1275	16658.61716152302	1035.619423510841	0
1276	16658.61719569722	1035.619423355263	0
1277	16658.56839403115	1035.626586106597	0
1278	16658.72048699749	1035.607732827622	0
1279	16658.98712226325	1035.574986069988	0
1280	16658.98749166896	1035.574970723727	0
1281	16862.64786545807	1025.804726176475	0
1282	16862.64793049754	1025.804727320325	0
1283	16863.50464756982	1026.320266347009	0
1284	16862.64786627523	1025.804725184332	0
1285	16863.50404889857	1026.320306745954	0
1286	16863.50414189803	1026.320302983891	0
1287	17247.86463076782	1055.214425455064	0
