idx	X	Y	component
0	11557.41066208296	1000	0
1	11611.67718084863	1053.440428576946	0
2	11611.70783670479	1053.444689664128	0
3	11589.31875861547	1050.89916416036	0
4	11589.31875861644	1050.899164160566	0
5	11550.9714956742	1047.002022981363	0
6	11550.9687635732	1047.002603878161	0
7	11549.30510347941	1046.801659954332	0
8	11550.98066814731	1046.996414775315	0
9	11549.31718588779	1046.797525107014	0
10	11549.30382870877	1046.801576830581	0
11	11524.21956857838	1044.237569485095	0
12	11524.21682966414	1044.237851914798	0
13	11523.29851814583	1044.043613429252	0
14	11523.30854869839	1044.045353007044	0
15	11521.39871793074	1044.149442853156	0
16	11521.35394656245	1044.128856843806	0
17	11519.74619877567	1044.033752064656	0
18	11524.21351137384	1044.237829841743	0
19	11521.41743105559	1044.159949313002	0
20	11521.41642904552	1044.159852667195	0
21	11519.76273106524	1044.039878831449	0
22	11519.74629262672	1044.033807511652	0
23	11518.44327558397	1043.783601843443	0
24	11518.44327558301	1043.783601843143	0
25	11516.66115906892	1043.630398279149	0
26	11519.17477912266	1043.642544111576	0
27	11516.85806917556	1043.548000375431	0
28	11516.65418440437	1043.629404669069	0
29	11506.57699348607	1042.958708468427	0
30	11506.56731519589	1042.957464316756	0
31	11504.94985932983	1042.587098783478	0
32	11506.80836928829	1042.990635110326	0
33	11505.07676725367	1042.574324720386	0
34	11504.94315739076	1042.586233601882	0
35	11485.67292395931	1041.248823561265	0
36	11485.66720641846	1041.248418746426	0
37	11484.16453895694	1041.127680357319	0
38	11485.66978006528	1041.248766325791	0
39	11484.17385653185	1041.127425954563	0
40	11484.17795147016	1041.128603026782	0
41	11472.28531740765	1039.911434476981	0
42	11472.2732107195	1039.91040253471	0
43	11470.56339582569	1039.691577390263	0
44	11472.27784307071	1039.910124409626	0
45	11470.57570071946	1039.6909922644	0
46	11470.5682216328	1039.692303382202	0
47	11463.6313736262	1039.036720835594	0
48	11463.6313736252	1039.036720835594	0
49	11461.89386232618	1038.868297700963	0
50	11461.89701545199	1038.866303431426	0
51	11459.97148470142	1038.727341120205	0
52	11463.6389795727	1039.036424408743	0
53	11461.91256032404	1038.871363732183	0
54	11461.91039330686	1038.869853755533	0
55	11459.99641359456	1038.733594221174	0
56	11460.00065841149	1038.733184715978	0
57	11451.93769153678	1038.005064712218	0
58	11451.93732295864	1038.005151654505	0
59	11450.39488533532	1037.794029306137	0
60	11451.93620457568	1038.003908294033	0
61	11450.38888667681	1037.791085454833	0
62	11450.37923950588	1037.787842538422	0
63	11430.9302395911	1036.046613161775	0
64	11430.93095440416	1036.045881625673	0
65	11429.5000711569	1035.872217686504	0
66	11430.99645975324	1036.014756902329	0
67	11429.57969069796	1035.869348708008	0
68	11429.49847350376	1035.872089819546	0
69	11410.61833537508	1034.31053474998	0
70	11410.62101515103	1034.307829653128	0
71	11409.1787467643	1034.244471570201	0
72	11410.62140856115	1034.31071285849	0
73	11409.18722796048	1034.246494144056	0
74	11409.18044113109	1034.245133865582	0
75	11396.12126777592	1032.884152787072	0
76	11396.11867614632	1032.88309962024	0
77	11394.65188043263	1032.787764010713	0
78	11396.12963044795	1032.88588415058	0
79	11394.65904142306	1032.80047368999	0
80	11394.65790264735	1032.799717338556	0
81	11391.54935869845	1032.565811802942	0
82	11391.5246805165	1032.56309607226	0
83	11389.94288518466	1032.383467570301	0
84	11392.31571729885	1032.439133526537	0
85	11390.23167027576	1032.373796137888	0
86	11389.94027876037	1032.383172192575	0
87	11386.71456131522	1031.934642626801	0
88	11386.69164809758	1031.926530779288	0
89	11385.19049352647	1031.829299322058	0
90	11386.71576775796	1031.93474032557	0
91	11385.16637671711	1031.83074348225	0
92	11385.0132910736	1031.818981935559	0
93	11383.36392718922	1031.745547135804	0
94	11387.05440378275	1031.711438868794	0
95	11385.24217385476	1031.837144439619	0
96	11385.24217385376	1031.837144439556	0
97	11383.37263359332	1031.74614713027	0
98	11383.3760121426	1031.741710558566	0
99	11381.3780669737	1031.569831420319	0
100	11383.3731027061	1031.746062391671	0
101	11381.33039402446	1031.569139907533	0
102	11381.32335841026	1031.567540727964	0
103	11380.74793985008	1031.541960850489	0
104	11380.73154326484	1031.541644523463	0
105	11370.241191852	1030.699595815587	0
106	11370.21660185336	1030.692429694192	0
107	11368.23770942041	1030.518056590081	0
108	11370.2383868858	1030.699309450091	0
109	11368.3421383031	1030.547346167895	0
110	11368.35967019194	1030.547918737318	0
111	11365.49388320591	1030.421282234517	0
112	11368.22002881934	1030.517871862352	0
113	11365.10432701249	1030.389333243538	0
114	11365.50741926144	1030.421976511813	0
115	11363.64133209974	1030.273964250533	0
116	11363.64809872272	1030.274371388963	0
117	11359.91045936992	1029.910088906029	0
118	11359.90541044629	1029.91124321995	0
119	11357.94658307887	1029.724291531018	0
120	11359.92047046639	1029.911871800862	0
121	11357.97502780623	1029.701948955824	0
122	11357.96386256752	1029.728032285338	0
123	11356.20131898326	1029.525709465938	0
124	11357.975692248	1029.702080100788	0
125	11356.18751563038	1029.520599735014	0
126	11356.18870403183	1029.524112218015	0
127	11348.02936555851	1028.711350903329	0
128	11348.02858177048	1028.710415164923	0
129	11346.47873503815	1028.585949314598	0
130	11348.01004502527	1028.702818185358	0
131	11346.48487625228	1028.584096160036	0
132	11346.49270880894	1028.587109827904	0
133	11341.47801318893	1028.060709049233	0
134	11341.38320496027	1028.007156584127	0
135	11339.9909566787	1028.005148999106	0
136	11341.44560030021	1028.050626270937	0
137	11339.98167474413	1028.007465500508	0
138	11341.47626576876	1028.059482040659	0
139	11340.07375024331	1028.00888155597	0
140	11339.97537191076	1028.007366018277	0
141	11338.37906338008	1027.932227466137	0
142	11338.38402538877	1027.931373337045	0
143	11336.85288039344	1027.879761736147	0
144	11338.38486422182	1027.932369740804	0
145	11336.85850827096	1027.877795059371	0
146	11336.84293183702	1027.877838955354	0
147	11327.72010246098	1027.154819363587	0
148	11327.71427617725	1027.153637202311	0
149	11326.16576033949	1026.959029267463	0
150	11327.72010579207	1027.15465505824	0
151	11326.17098568036	1026.95922954559	0
152	11326.16703743268	1026.959189810703	0
153	11324.56639732399	1026.687328132712	0
154	11324.56787403774	1026.687252149375	0
155	11323.10119734125	1026.592663218985	0
156	11323.09756917102	1026.591206375962	0
157	11321.47391708487	1026.440046837372	0
158	11324.58754221027	1026.660873480178	0
159	11323.2314396618	1026.537108586941	0
160	11323.10895841804	1026.593413742902	0
161	11321.465132329	1026.435470742057	0
162	11321.47182305948	1026.440154087936	0
163	11318.66657675907	1026.169928879303	0
164	11321.46999612799	1026.429116208986	0
165	11318.7355310799	1026.169139812119	0
166	11318.73179287621	1026.168349075521	0
167	11317.18598598266	1025.90316130496	0
168	11317.15042446516	1025.898509553738	0
169	11315.2085169698	1025.500483590269	0
170	11317.18521097391	1025.903636339128	0
171	11315.23402317665	1025.520946856017	0
172	11317.27400711039	1025.900765803813	0
173	11315.30176467243	1025.537529334916	0
174	11315.22625002367	1025.519422474817	0
175	11310.20739387426	1025.395543528196	0
176	11310.17103866316	1025.378693223649	0
177	11308.77129502161	1025.237563471047	0
178	11310.19853809535	1025.394497031758	0
179	11308.77953443982	1025.250442586975	0
180	11308.77939949537	1025.250427680278	0
181	11295.2287089168	1024.408618126168	0
182	11295.22808582867	1024.407155825947	0
183	11293.84578412338	1024.30708653408	0
184	11295.22544714557	1024.407772896992	0
185	11293.84985746639	1024.30094293577	0
186	11293.8428205846	1024.306184839093	0
187	11292.33097790621	1024.291379009928	0
188	11293.84346119166	1024.302278760371	0
189	11292.29667331565	1024.274127213124	0
190	11292.33285753751	1024.292507920577	0
191	11289.21085657191	1024.108275510705	0
192	11289.21201140335	1024.10757225366	0
193	11287.70274152069	1023.961171822001	0
194	11289.20789235364	1024.108223463555	0
195	11287.81277908346	1023.98554071226	0
196	11289.21391853979	1024.108859306076	0
197	11287.83776456309	1023.98663359211	0
198	11287.83767801812	1023.985799887291	0
199	11283.71344710476	1023.689068159172	0
200	11283.71924503946	1023.68917724454	0
201	11282.24787898946	1023.55237312944	0
202	11283.84866988727	1023.671295878994	0
203	11282.27844888755	1023.549128532382	0
204	11282.24638572968	1023.55232102553	0
205	11276.12366729403	1023.120736110716	0
206	11276.11604088408	1023.121218873901	0
207	11274.75449596429	1022.857176127657	0
208	11274.76646261593	1022.858298580722	0
209	11273.30787232685	1022.642855541204	0
210	11276.14974337653	1023.120122311638	0
211	11274.77707005245	1022.855817993559	0
212	11274.75265783348	1022.857219176608	0
213	11273.29440769053	1022.645922648359	0
214	11275.2766942598	1022.711105764301	0
215	11273.28907518699	1022.651141281757	0
216	11273.28261451449	1022.645194037741	0
217	11268.56755328149	1022.29966514996	0
218	11268.49723337778	1022.237925162165	0
219	11267.04758779462	1021.98266175178	0
220	11268.57010366377	1022.300601368331	0
221	11267.04772508401	1022.005856174194	0
222	11267.04474894774	1022.005315366363	0
223	11254.00425140848	1021.328786388247	0
224	11254.00080152404	1021.328065907084	0
225	11252.69518248056	1021.104719726784	0
226	11254.01300643029	1021.327246379206	0
227	11252.67882460076	1021.107259218189	0
228	11252.67953480016	1021.107085214861	0
229	11250.97625832042	1021.044154242317	0
230	11250.9515559758	1021.042770478043	0
231	11249.38776698611	1020.998526037046	0
232	11252.68845599094	1021.103671424495	0
233	11250.9802330529	1021.04120875364	0
234	11250.97399161637	1021.043861193152	0
235	11249.39498315667	1021.002063071659	0
236	11249.39594779337	1021.000866057424	0
237	11235.65667511107	1020.398267632873	0
238	11235.57674965766	1020.358488048467	0
239	11234.08734997148	1020.05220244133	0
240	11235.62989633023	1020.396262611662	0
241	11234.15952598427	1020.130085021457	0
242	11234.16537674367	1020.131270449873	0
243	11232.68745393785	1020.274521579511	0
244	11234.08637385787	1020.053224183407	0
245	11232.78204607996	1020.241512081076	0
246	11232.6821506934	1020.273963972344	0
247	11229.66840033056	1020.15936870618	0
248	11229.67408338795	1020.15752542953	0
249	11228.13124431456	1020.086990021146	0
250	11229.69231643083	1020.160710932033	0
251	11228.12748549851	1020.086486612488	0
252	11228.12730193219	1020.086834962687	0
253	11221.92446767584	1019.560071728501	0
254	11221.89599921359	1019.556175399855	0
255	11220.23735791207	1019.371802055693	0
256	11220.1845387814	1019.322805822238	0
257	11218.90617349398	1019.348907731013	0
258	11221.91202126379	1019.557844030846	0
259	11220.23684400975	1019.371792073904	0
260	11220.23587931735	1019.371652048576	0
261	11218.91299817415	1019.351332851505	0
262	11218.91183721876	1019.351268827654	0
263	11209.77231631525	1018.686199281532	0
264	11209.76917095733	1018.685425593473	0
265	11208.42794293666	1018.373777687064	0
266	11209.77289266982	1018.682075510044	0
267	11208.4367083723	1018.372675751667	0
268	11208.43751967229	1018.373917082657	0
269	11205.31360176584	1018.33250152496	0
270	11205.31077801387	1018.331977097843	0
271	11203.89301368217	1018.220442960182	0
272	11205.3042365136	1018.332081540485	0
273	11203.90031978274	1018.22097951682	0
274	11203.89533687637	1018.221181769202	0
275	11191.57060894415	1017.500485305504	0
276	11191.59351568144	1017.503760557972	0
277	11190.05414246654	1017.269234935567	0
278	11191.76748783947	1017.507110401747	0
279	11191.30289075726	1017.025649576892	0
280	11190.05365707413	1017.267328242013	0
281	11182.76265208337	1016.766089520029	0
282	11182.76327532329	1016.766984125932	0
283	11181.06216785835	1016.635832709236	0
284	11182.91109681051	1016.755314841192	0
285	11181.08601433808	1016.623531235236	0
286	11181.05937686945	1016.635972822476	0
287	11176.65326122817	1016.24760998291	0
288	11176.65434381982	1016.247634565633	0
289	11174.8878909633	1016.137005287471	0
290	11174.90938603793	1016.13847246843	0
291	11173.53945250383	1015.665424777379	0
292	11174.91486779439	1016.138679366645	0
293	11173.6094563353	1015.675022499154	0
294	11176.66309483818	1016.247032339764	0
295	11175.34793021327	1015.394499109598	0
296	11175.07618050377	1015.315740316717	0
297	11173.52966697112	1015.654818334945	0
298	11175.34913134097	1015.39496006684	0
299	11173.68908755851	1015.658271568784	0
300	11173.69376322173	1015.65837409451	0
301	11168.81567212189	1015.837248126918	0
302	11168.81568012347	1015.837249238833	0
303	11167.39539082622	1015.627934302389	0
304	11168.80324593333	1015.833388479378	0
305	11167.43015940032	1015.575238864475	0
306	11167.39005864965	1015.627266127396	0
307	11165.75694380666	1015.651183492409	0
308	11167.21890271616	1015.626276671778	0
309	11165.75117805252	1015.649002712429	0
310	11167.4344287066	1015.574581266472	0
311	11166.1905793098	1015.613508709662	0
312	11165.75715695418	1015.651371323155	0
313	11162.88662853038	1015.627675543659	0
314	11162.82163436266	1015.577030821149	0
315	11161.44026093125	1015.63183690994	0
316	11162.8947295652	1015.628494451894	0
317	11161.43748136241	1015.634187536818	0
318	11161.43397502173	1015.634840821467	0
319	11146.85714579509	1015.405633194929	0
320	11146.87316232923	1015.40744305301	0
321	11145.57324334521	1015.30234172949	0
322	11146.87291083398	1015.400529905646	0
323	11145.63840203956	1015.28860999499	0
324	11145.56667066477	1015.30294230272	0
325	11142.29222213832	1015.322739384114	0
326	11142.29266669343	1015.321944351468	0
327	11140.83142788722	1015.151306490918	0
328	11142.28353570382	1015.317840487446	0
329	11140.82968744286	1015.150267762205	0
330	11140.82919815867	1015.150859983964	0
331	11122.92430483648	1014.078335079235	0
332	11122.92320652648	1014.077839102382	0
333	11121.61739008363	1013.933605147559	0
334	11122.91646461671	1014.048420198984	0
335	11122.00869610971	1013.470796660244	0
336	11121.6126066023	1013.932727421	0
337	11119.94746319849	1014.187164281874	0
338	11119.91180111847	1014.197829645557	0
339	11118.42991428197	1014.089085722269	0
340	11119.94206413839	1014.187080100696	0
341	11118.44672546874	1014.085808628296	0
342	11118.42648271483	1014.088450051816	0
343	11116.87187990552	1014.088930974997	0
344	11116.85293183403	1014.088130357084	0
345	11115.480888255	1013.972125661769	0
346	11116.85109787278	1014.08466269918	0
347	11115.52358144713	1013.962446254104	0
348	11115.47602135734	1013.972114428547	0
349	11109.20566776327	1013.975918383595	0
350	11109.20684333082	1013.975945998072	0
351	11107.68694500008	1013.936580333811	0
352	11109.20951312976	1013.976521971445	0
353	11107.68786919331	1013.940886001646	0
354	11107.69612855721	1013.94045868963	0
355	11106.08917570604	1013.948168928343	0
356	11106.08858646324	1013.946387156405	0
357	11104.7553164713	1013.862348415683	0
358	11106.07965828079	1013.945551047872	0
359	11104.75971371451	1013.863943445011	0
360	11104.75508283862	1013.862900618736	0
361	11101.66150313131	1013.661228635512	0
362	11101.65698494889	1013.657204678643	0
363	11099.94992770102	1013.682212310888	0
364	11101.6580184353	1013.66032267136	0
365	11099.96779522668	1013.697910266451	0
366	11099.95439610635	1013.682994448335	0
367	11078.84576925785	1013.105202977163	0
368	11078.80500101972	1013.08734326521	0
369	11077.78350369521	1013.078348258833	0
370	11078.83940092562	1013.105011598081	0
371	11077.77089116428	1013.084025134174	0
372	11077.76645870406	1013.083899066323	0
373	11052.20542945588	1011.964031144235	0
374	11052.18373021914	1011.959354351056	0
375	11050.89604132108	1012.125499450975	0
376	11052.20717834735	1011.962606322835	0
377	11050.9018491445	1012.126753104444	0
378	11050.90292717117	1012.126808184407	0
379	11036.27906513497	1011.337180154079	0
380	11034.80729189985	1008.962561187031	0
381	11034.44022513436	1010.677017117717	0
382	11036.27547892455	1011.336858406455	0
383	11034.78832125797	1010.969491429432	0
384	11034.78919012809	1010.970853409404	0
385	11033.40011850632	1011.105139152333	0
386	11034.78748152002	1010.967159397798	0
387	11033.46116493021	1011.10554060783	0
388	11033.39986101405	1011.105164133309	0
389	11027.56356377998	1010.928213937764	0
390	11027.56429449894	1010.928122310167	0
391	11026.0042027796	1010.847006863632	0
392	11026.00083835154	1010.847214426204	0
393	11024.53494048931	1010.844825793448	0
394	11027.57889745738	1010.918984641182	0
395	11026.28271321734	1010.567030062716	0
396	11026.02148565037	1010.83206728468	0
397	11024.52783387519	1010.839670859985	0
398	11024.53487070505	1010.842471339688	0
399	11023.05587987475	1010.769837696452	0
400	11023.05177570247	1010.7718511697	0
401	11021.45932399712	1010.790937195105	0
402	11023.05264283377	1010.769272542596	0
403	11021.46499244078	1010.791163496473	0
404	11021.45929725736	1010.790153746753	0
405	11018.69820309172	1010.741604950395	0
406	11018.6989494434	1010.741836344291	0
407	11017.16959912272	1010.508510583079	0
408	11018.70224529503	1010.740163331089	0
409	11017.16758927168	1010.510828043466	0
410	11017.17089422952	1010.508965712253	0
411	11012.82007620791	1010.510148067937	0
412	11017.1315588147	1010.401307934661	0
413	11012.78434771522	1010.475795280941	0
414	11012.81699992344	1010.510415055996	0
415	11011.49080560937	1010.527583347474	0
416	11011.47344563328	1010.526929961079	0
417	11010.11838066276	1010.454514256718	0
418	11011.53645340775	1010.470913391759	0
419	11010.16263703125	1010.447334786109	0
420	11010.11600285119	1010.454491845246	0
421	11001.26070176581	1010.276604554315	0
422	11001.24505397447	1010.273742617795	0
423	10999.9884340529	1010.117898790365	0
424	11001.25636322838	1010.269120279662	0
425	11000.06768195985	1010.083537527416	0
426	10999.98750250145	1010.117393317134	0
427	10995.46288627709	1010.050618161752	0
428	10995.51084002157	1009.940735312785	0
429	10994.05134125633	1009.836931049339	0
430	10995.46394321555	1010.050640353684	0
431	10994.06200101718	1009.84751327423	0
432	10994.05730730838	1009.847050498151	0
433	10992.62345665263	1009.789626166344	0
434	10992.62232601238	1009.789620840268	0
435	10991.15279022545	1009.626910024864	0
436	10992.6219666583	1009.788880098765	0
437	10991.12162442032	1009.572065408892	0
438	10991.15989918623	1009.626502582921	0
439	10985.22750746153	1009.838421594471	0
440	10985.22158690139	1009.836590799504	0
441	10983.91528202198	1009.748776625507	0
442	10985.19806058291	1009.831808060977	0
443	10983.91355459185	1009.747961561958	0
444	10983.91528202201	1009.748776624507	0
445	10982.27460080398	1009.770039798345	0
446	10982.27555711276	1009.770050685178	0
447	10980.81087949124	1009.731980606447	0
448	10982.26284067314	1009.766335664711	0
449	10980.81801711143	1009.730623323696	0
450	10980.81118279675	1009.73292022862	0
451	10974.72817867299	1009.555378300116	0
452	10974.73488475338	1009.555737956073	0
453	10973.37631592381	1009.467425102772	0
454	10974.71199804955	1009.549156602801	0
455	10973.35032850515	1009.451293487783	0
456	10973.36639769049	1009.466049717729	0
457	10964.46163415172	1009.259779581305	0
458	10964.452976132	1009.259428950178	0
459	10963.24488730682	1008.929599241354	0
460	10964.43779384555	1009.262649825798	0
461	10963.22230067715	1008.950455773259	0
462	10964.49444336714	1009.188045008283	0
463	10963.29103602999	1008.903994678702	0
464	10963.24632703721	1008.92967011662	0
465	10941.2198146994	1008.57478647041	0
466	10941.22242300045	1008.574616010998	0
467	10939.83236912776	1008.397688744285	0
468	10939.82688174476	1008.393697837239	0
469	10938.37377320416	1008.405364761242	0
470	10939.82492866219	1008.397441048297	0
471	10938.37476039262	1008.414379347576	0
472	10941.22806422253	1008.572536322142	0
473	10940.04919793465	1008.41718790939	0
474	10939.83275892859	1008.401443514037	0
475	10938.38589115505	1008.416751693809	0
476	10938.3833121691	1008.417232938613	0
477	10937.01906725459	1008.313526127716	0
478	10937.01558410785	1008.312843563745	0
479	10935.59124146407	1008.357705824441	0
480	10937.01833985666	1008.321332535334	0
481	10935.59743536805	1008.358048602706	0
482	10937.01865465591	1008.316005821664	0
483	10935.64931760321	1008.344777180021	0
484	10935.59314630482	1008.35724238897	0
485	10934.2201433712	1008.356332654915	0
486	10934.22737614886	1008.355749401669	0
487	10932.81432324953	1008.464269610492	0
488	10935.64931760419	1008.344777179831	0
489	10934.30915658383	1008.314438866579	0
490	10934.32108217242	1008.31451912411	0
491	10932.80848328298	1008.464569384183	0
492	10932.80799849666	1008.464711459014	0
493	10926.7747265091	1008.478198000552	0
494	10926.76265627254	1008.474628384403	0
495	10925.36108554122	1008.576708598425	0
496	10926.76500947808	1008.479456103442	0
497	10925.37348012112	1008.578945978371	0
498	10925.36895613225	1008.579126934177	0
499	10923.48396290791	1008.557426279961	0
500	10923.48014575021	1008.555543734997	0
501	10923.35994938894	1008.552789922126	0
502	10923.36092191974	1008.551845968366	0
503	10921.44439562254	1008.331858916666	0
504	10921.44946581957	1008.330746017994	0
505	10920.00287347086	1008.307756397625	0
506	10921.44387159222	1008.330398808604	0
507	10919.98507010139	1008.302361868566	0
508	10920.00336342967	1008.295142969483	0
509	10918.47923459805	1008.27342024464	0
510	10920.01116181393	1008.304987322603	0
511	10918.46228326332	1008.282105806187	0
512	10921.46896922508	1008.297270004177	0
513	10920.17082901743	1008.236750140145	0
514	10920.1683062492	1008.237128765515	0
515	10918.46344578227	1008.282455867465	0
516	10918.4605808315	1008.281951366147	0
517	10917.06424727436	1008.271821996512	0
518	10917.06685995824	1008.271915044338	0
519	10915.52834843658	1008.150585699139	0
520	10915.65628792927	1008.125826736442	0
521	10915.48820637376	1008.145791104152	0
522	10915.52647741549	1008.150654544203	0
523	10914.25281683766	1008.24660440652	0
524	10917.06094183531	1008.266446542999	0
525	10914.35978754336	1008.241624728244	0
526	10914.35630487536	1008.241814062864	0
527	10905.63201672667	1008.101650466987	0
528	10905.61449550434	1008.101681223733	0
529	10904.07054988803	1007.943951802613	0
530	10903.95735387788	1007.927087830022	0
531	10902.41624170882	1007.78855592698	0
532	10904.02314626194	1007.964721423119	0
533	10902.43743303208	1007.994414273226	0
534	10905.63103010124	1008.101635766893	0
535	10904.23815000038	1007.947201028052	0
536	10904.05715477028	1007.945495705675	0
537	10902.43587186182	1007.976171074689	0
538	10902.434013998	1007.994390451607	0
539	10900.93951438519	1008.178334307754	0
540	10902.43494223192	1007.976062696801	0
541	10900.92979757572	1008.177903851559	0
542	10900.94258106619	1008.17882657085	0
543	10896.57204630679	1008.222917033402	0
544	10896.53667773548	1008.233701935444	0
545	10894.4881535035	1007.497469214863	0
546	10896.57124952418	1008.224745517724	0
547	10894.70797010696	1007.648846475699	0
548	10894.70364676634	1007.649902513127	0
549	10889.64985063438	1008.421266866957	0
550	10889.64319624738	1008.420568386693	0
551	10888.19170340933	1008.445195028656	0
552	10889.6476773489	1008.421262741281	0
553	10888.20612674411	1008.447451582648	0
554	10888.18488713482	1008.444297872834	0
555	10886.5581739863	1008.460571859899	0
556	10886.55829513294	1008.460807993216	0
557	10885.41273007783	1008.286927683231	0
558	10886.38619419674	1008.405299235365	0
559	10885.36894074006	1008.279433253425	0
560	10885.40908745963	1008.286673105385	0
561	10883.71775180311	1008.309304938964	0
562	10885.12869146727	1008.157734164547	0
563	10883.7120154111	1008.29775589211	0
564	10883.71145655129	1008.309432084532	0
565	10879.14184539016	1008.267384076794	0
566	10879.14087773697	1008.265356757329	0
567	10877.69459686903	1008.31612975948	0
568	10879.15978039313	1008.270529781718	0
569	10877.69853027402	1008.318089552502	0
570	10879.16686570722	1008.271695650394	0
571	10877.72389347504	1008.322499566511	0
572	10877.735318368	1008.323413460647	0
573	10876.29127607404	1008.353484191824	0
574	10876.26966185374	1008.353184898509	0
575	10874.76689259194	1008.348321298023	0
576	10874.76579252033	1008.346684107003	0
577	10873.31920733231	1008.189862535046	0
578	10876.2891916253	1008.351505701696	0
579	10874.77274276165	1008.353455534529	0
580	10874.76453841379	1008.35431224187	0
581	10873.32647061827	1008.208731302399	0
582	10873.3242180528	1008.208724568811	0
583	10867.45130278836	1008.463322143072	0
584	10867.45129414114	1008.463903453186	0
585	10865.99222199968	1008.325409180056	0
586	10867.44531360927	1008.464066316866	0
587	10865.98529905934	1008.319283745997	0
588	10865.98197509121	1008.325889953804	0
589	10863.23830533345	1008.388015815126	0
590	10865.99589164626	1008.280452409308	0
591	10863.31209041871	1008.353499474254	0
592	10863.22920833599	1008.390169544238	0
593	10861.7450459702	1008.403317424114	0
594	10861.73927727672	1008.404076329727	0
595	10860.21135710359	1008.384330694985	0
596	10861.73642852542	1008.403105672903	0
597	10860.20791422671	1008.383133003307	0
598	10860.20776597289	1008.383596579125	0
599	10858.76806076498	1008.311406160258	0
600	10858.76582929164	1008.309719448469	0
601	10857.15875727904	1008.303652123616	0
602	10860.47467628918	1008.207524472148	0
603	10858.75051035103	1008.323477915575	0
604	10858.76924750122	1008.311267287763	0
605	10857.22974287028	1008.366601232882	0
606	10857.22960317128	1008.36489099044	0
607	10855.74009918938	1008.443843317229	0
608	10857.15875727805	1008.30365212347	0
609	10855.76414120464	1008.433834903686	0
610	10855.77740947864	1008.431348661315	0
611	10852.66527283915	1008.520716735456	0
612	10852.65858458316	1008.519920300873	0
613	10851.11546599989	1008.540533496477	0
614	10852.66283061494	1008.520922736142	0
615	10851.12860432793	1008.545758803807	0
616	10851.12280715284	1008.545340250014	0
617	10849.70352733634	1008.656603752799	0
618	10849.68922612768	1008.654373108739	0
619	10848.37060997826	1008.65861850587	0
620	10849.70158069467	1008.657033112639	0
621	10848.36643767536	1008.660437167201	0
622	10848.36549189105	1008.661058716774	0
623	10836.76101565817	1008.529927885812	0
624	10836.74998440027	1008.53053645889	0
625	10835.47262687287	1008.678663798939	0
626	10836.73565701627	1008.503077346252	0
627	10835.68434091758	1008.680485964432	0
628	10835.47127962244	1008.67866867577	0
629	10823.73622493361	1008.623736862191	0
630	10823.73547641158	1008.623782795632	0
631	10822.12193228833	1008.628266800113	0
632	10823.85991953287	1008.588695333606	0
633	10822.164507206	1008.623192514743	0
634	10822.12177195881	1008.628312921665	0
635	10817.4848990067	1008.636353561127	0
636	10817.42514151743	1008.624233261053	0
637	10816.0970591468	1008.651453358913	0
638	10817.4843482894	1008.63632292805	0
639	10816.08757557395	1008.663553058643	0
640	10817.46792967414	1008.633088429936	0
641	10816.11673225172	1008.662232500148	0
642	10816.09854437936	1008.6518106807	0
643	10807.73498140396	1008.895969468939	0
644	10807.73957219832	1008.896548218403	0
645	10806.41249045564	1008.881892205532	0
646	10807.77020326663	1008.896581593766	0
647	10806.41533860153	1008.882088352217	0
648	10806.41400447823	1008.881031606252	0
649	10790.1346698703	1008.192982150746	0
650	10789.60893958175	1007.812763992234	0
651	10788.77761370295	1008.419031462606	0
652	10790.13248565683	1008.193001850074	0
653	10788.87745787448	1008.493568867099	0
654	10790.34218346489	1008.322235112832	0
655	10788.95440000525	1008.568750361329	0
656	10788.87832270301	1008.493372199904	0
657	10784.19910391262	1008.411015417905	0
658	10784.19676377435	1008.410988607989	0
659	10783.33516260078	1008.718310220964	0
660	10784.68251888277	1008.949367957445	0
661	10783.34538216577	1008.770478305185	0
662	10783.3397051984	1008.77103914826	0
663	10780.45877751746	1008.90492334282	0
664	10780.46247207666	1008.905272069407	0
665	10779.08419432459	1008.968889099821	0
666	10780.50735005848	1008.89176036007	0
667	10779.16616591704	1008.965750703465	0
668	10779.08363639763	1008.969720948186	0
669	10770.00720997436	1009.080115169676	0
670	10770.01484636427	1009.079258777481	0
671	10768.65528686065	1009.180764322153	0
672	10770.02786034662	1009.10877786715	0
673	10768.65019764693	1009.189850869036	0
674	10768.63298826206	1009.188807185747	0
675	10762.81823921457	1009.466203539033	0
676	10762.80941735064	1009.466904353676	0
677	10761.39785495744	1009.457993789147	0
678	10762.81450700441	1009.469281643269	0
679	10761.39180976332	1009.456055188673	0
680	10761.40959124362	1009.45956716581	0
681	10758.17855247193	1008.775700004803	0
682	10758.3230056197	1008.821725601502	0
683	10757.575080549	1007.904209069786	0
684	10757.55869417771	1007.903003092235	0
685	10758.07623214974	1008.731678737042	0
686	10757.59007934317	1007.888933398076	0
687	10758.02853989177	1008.724824736966	0
688	10758.07275797601	1008.732738677751	0
689	10738.20228602324	1010.442125140992	0
690	10738.20265794957	1010.442799162318	0
691	10738.09685299038	1010.44454527764	0
692	10738.08881992431	1010.445367033513	0
693	10735.91946878372	1010.414282003876	0
694	10735.92493175612	1010.414158702248	0
695	10733.07637356737	1010.404527714048	0
696	10735.92024840943	1010.412834745265	0
697	10733.08796551818	1010.399305805751	0
698	10733.0776690738	1010.404034172544	0
699	10729.95245734491	1010.456352436767	0
700	10729.95245734392	1010.456352436651	0
701	10728.54869185251	1010.520576256608	0
702	10729.96052719387	1010.457086333443	0
703	10728.53914707329	1010.51867960271	0
704	10728.53853665492	1010.519627836346	0
705	10724.41150186389	1009.748232403371	0
706	10724.58819573028	1009.694694060264	0
707	10724.40989320927	1009.742415340175	0
708	10724.41205403909	1009.747977107196	0
709	10722.46566397626	1010.100406750296	0
710	10722.46353777322	1010.100759670464	0
711	10721.00310280018	1010.106300001001	0
712	10722.39658138187	1010.102209164323	0
713	10720.98645669795	1010.104184484233	0
714	10720.99688147978	1010.105822705425	0
715	10718.02583971081	1009.95058216202	0
716	10718.03707082077	1009.953043848689	0
717	10713.87513135	1010.029025009826	0
718	10718.03064105764	1009.950553667972	0
719	10716.52034332852	1009.413962829598	0
720	10718.19462585138	1009.663175068711	0
721	10716.54017249294	1009.415443542759	0
722	10716.5129459901	1009.413649191308	0
723	10713.86733547281	1010.02718316924	0
724	10713.86464898317	1010.028071890838	0
725	10705.7161360976	1010.482341244111	0
726	10705.68329483896	1010.465656703939	0
727	10704.43792176029	1010.533623839859	0
728	10705.71073634335	1010.481931363503	0
729	10704.44146495363	1010.550563880546	0
730	10704.43749908409	1010.550670162918	0
731	10701.66851972059	1010.894006558804	0
732	10701.66851971959	1010.894006558877	0
733	10700.85467835437	1010.384193522539	0
734	10701.72343626607	1010.875850007859	0
735	10700.89132769199	1010.382852471201	0
736	10700.85122428885	1010.384108292998	0
737	10689.69271620636	1010.797919507427	0
738	10689.69271620537	1010.797919507302	0
739	10688.14051254276	1010.846130348184	0
740	10689.66379837882	1010.785154294246	0
741	10688.09389774318	1010.825543315993	0
742	10688.14005759222	1010.84622968259	0
743	10685.45514307915	1011.306605147648	0
744	10685.44290470143	1011.2878878618	0
745	10684.16747998114	1011.325186292137	0
746	10685.45196306992	1011.305447808894	0
747	10684.18249564398	1011.331268669034	0
748	10685.4545215312	1011.305759162645	0
749	10684.17472581032	1011.331998754884	0
750	10684.17472580933	1011.331998755008	0
751	10675.77930437173	1011.68732429186	0
752	10675.76435561798	1011.689700573624	0
753	10674.29742377742	1011.711863405273	0
754	10674.25017065276	1011.709177752351	0
755	10672.76109370551	1011.812588388085	0
756	10675.77395076957	1011.688761706871	0
757	10674.32931328466	1011.710503265333	0
758	10674.29658470655	1011.711400402678	0
759	10672.81739755088	1011.862585746671	0
760	10672.82213392931	1011.864148714152	0
761	10671.3102838593	1011.869312397848	0
762	10671.30159024006	1011.869237619988	0
763	10669.96673326073	1011.906085157983	0
764	10671.31830151032	1011.862236324992	0
765	10670.06598932073	1011.776662196403	0
766	10669.95799985926	1011.904651725654	0
767	10659.92078347371	1012.328045149319	0
768	10659.92267650847	1012.326785782058	0
769	10658.4731657533	1012.264458772842	0
770	10659.92184034225	1012.327492916269	0
771	10658.4666014012	1012.267864333435	0
772	10658.46167344	1012.268078858618	0
773	10657.06159402943	1012.266515440586	0
774	10657.1274826454	1012.244904209275	0
775	10657.05326628031	1012.293162518076	0
776	10657.05663118852	1012.267303045001	0
777	10655.46288745617	1012.452092071636	0
778	10655.45817101524	1012.452607696916	0
779	10653.98507632123	1012.502759855258	0
780	10655.46204660489	1012.451411437271	0
781	10653.94058775748	1012.515681665157	0
782	10653.98828124707	1012.502609912225	0
783	10649.42194989981	1012.587771032772	0
784	10649.42252147536	1012.588447450068	0
785	10648.0046964691	1012.628015978079	0
786	10649.41991622165	1012.587304457596	0
787	10647.96801014731	1012.581368361137	0
788	10647.99631893565	1012.629072613357	0
789	10643.47478922329	1012.844211758882	0
790	10643.47352156139	1012.844237974722	0
791	10641.8651272121	1012.785720458542	0
792	10643.48018687522	1012.841529000073	0
793	10641.86611452214	1012.772111002941	0
794	10641.86236616757	1012.785654367769	0
795	10640.43870780852	1012.867737096147	0
796	10640.43818604433	1012.868668160306	0
797	10638.85431107391	1012.88297042896	0
798	10640.42533408341	1012.869072502973	0
799	10638.85366383374	1012.890889682883	0
800	10640.44001525171	1012.867977216826	0
801	10638.84509183026	1012.894342845416	0
802	10638.84953597418	1012.89085155149	0
803	10635.80111318089	1012.95240313436	0
804	10635.80582396046	1012.948269491562	0
805	10634.45575980733	1013.107213619064	0
806	10635.80472736009	1012.954242131098	0
807	10634.45249922402	1013.108984495184	0
808	10634.44748191307	1013.108092038677	0
809	10600.30316532549	1014.310770261674	0
810	10600.29976465601	1014.309088186405	0
811	10598.80229059653	1014.11870245072	0
812	10600.34965831293	1014.172420540556	0
813	10598.7614453056	1014.094897941353	0
814	10598.80504047749	1014.118236070391	0
815	10597.53681179799	1013.879962308261	0
816	10597.53681243182	1013.879956912308	0
817	10596.86507505363	1014.033913057446	0
818	10597.61660281539	1013.161175758079	0
819	10597.6385967962	1013.329924461317	0
820	10596.85426082734	1014.035230423639	0
821	10567.7040438573	1016.917010260024	0
822	10567.69753610214	1016.917534800429	0
823	10567.37545570001	1016.972825774299	0
824	10567.37274122986	1016.973679021895	0
825	10553.91905093004	1017.05386000007	0
826	10553.91804064761	1017.053847820602	0
827	10552.47622943291	1017.151994216136	0
828	10553.92252166361	1017.052262295489	0
829	10552.48582758928	1017.152493443078	0
830	10552.47698849817	1017.152256151204	0
831	10551.01984344551	1017.082291139831	0
832	10551.01255554629	1017.081959550724	0
833	10549.58749880209	1017.121791712093	0
834	10551.01132078847	1017.064622286376	0
835	10549.57837188673	1017.123066155406	0
836	10549.59155085681	1017.122138437161	0
837	10531.12052828751	1016.869836713497	0
838	10531.04070309893	1016.906441653798	0
839	10529.40173058235	1017.293721371366	0
840	10531.08436404235	1016.892343637014	0
841	10529.40297945061	1017.287918369323	0
842	10531.00121050329	1016.849234319369	0
843	10529.39752355978	1017.296640832093	0
844	10531.11570581545	1016.870797181321	0
845	10531.09943421773	1016.911268051094	0
846	10531.05212163174	1016.905670712201	0
847	10529.38752772541	1017.298149811086	0
848	10529.39051262921	1017.297997841652	0
849	10526.63390360328	1017.779823081153	0
850	10526.5313113277	1017.744493336164	0
851	10525.11580131778	1017.930845110166	0
852	10526.63729550149	1017.778632748914	0
853	10525.13219599436	1017.932165267307	0
854	10525.13277645112	1017.931971584315	0
855	10510.85796255631	1019.132362317329	0
856	10510.84177908407	1019.132486808714	0
857	10509.4695477381	1019.353976305269	0
858	10510.92337652541	1019.088816532696	0
859	10509.63515857727	1019.028262520124	0
860	10509.46683004828	1019.354103686891	0
861	10506.68491450162	1019.38168773276	0
862	10506.68931108861	1019.381644495642	0
863	10505.22832664937	1019.431677669003	0
864	10506.70325721911	1019.37868101411	0
865	10505.36594164489	1019.319399454259	0
866	10505.22996410419	1019.432164383753	0
867	10503.91473801661	1019.429960418271	0
868	10503.90277711799	1019.429544556991	0
869	10502.6484210885	1019.470053527895	0
870	10503.90360862092	1019.426500749296	0
871	10502.6580597496	1019.472796709389	0
872	10503.92406600602	1019.424745476796	0
873	10502.66527635711	1019.45809032986	0
874	10502.65000701262	1019.469642722669	0
875	10490.95696958289	1020.445682329513	0
876	10490.9408011272	1020.445039214721	0
877	10489.41794912042	1020.366612991895	0
878	10489.33915866154	1020.184324128114	0
879	10488.00545748671	1020.572297472664	0
880	10490.95057199844	1020.442646446282	0
881	10489.69068899169	1020.430167723506	0
882	10489.41775713552	1020.367489067571	0
883	10488.04448111241	1020.578056349648	0
884	10487.9683187175	1020.578324167786	0
885	10486.61633148129	1020.705788224446	0
886	10488.03494264423	1020.575138185481	0
887	10486.6180062388	1020.716747377064	0
888	10486.61651925932	1020.717043456643	0
889	10480.69691957542	1021.172916805248	0
890	10480.68529815929	1021.174043604164	0
891	10479.26435061217	1021.218767771443	0
892	10480.689368702	1021.173787524982	0
893	10479.28553449395	1021.206917900251	0
894	10479.26126182305	1021.219917698378	0
895	10477.75925451374	1021.340009060071	0
896	10477.76554484695	1021.338286747754	0
897	10476.41440922552	1021.468240142722	0
898	10477.76398075823	1021.338954331379	0
899	10476.4003893451	1021.466921551576	0
900	10476.42239196225	1021.465733495269	0
901	10464.83892626321	1022.18104613533	0
902	10464.83579098698	1022.181225151293	0
903	10463.54149434896	1022.437432397287	0
904	10464.84959706015	1022.137185041858	0
905	10463.57056293873	1022.433999772247	0
906	10463.55522770339	1022.43538622403	0
907	10459.33343293462	1022.747559055577	0
908	10459.33028940014	1022.747525744091	0
909	10458.06886800946	1022.623136851823	0
910	10459.42764962478	1022.330271814713	0
911	10458.09819616426	1022.610485323903	0
912	10458.06566157768	1022.621979880189	0
913	10450.61503684628	1023.162174393258	0
914	10450.60662620527	1023.162488736628	0
915	10449.23965135154	1023.231837846292	0
916	10450.61259677547	1023.161602400211	0
917	10449.22742165911	1023.231279398464	0
918	10450.64015492745	1023.166307007971	0
919	10449.67090611832	1023.006344448313	0
920	10449.23789346536	1023.232144167408	0
921	10447.75253939651	1023.248267108163	0
922	10447.74501082325	1023.231986477748	0
923	10446.20998894224	1023.365724447009	0
924	10447.76072987937	1023.246973064002	0
925	10446.26605532463	1023.387240477327	0
926	10446.25463224661	1023.386564669783	0
927	10442.08082783713	1023.645839004437	0
928	10442.07353450336	1023.641082692381	0
929	10440.60369998226	1023.71066262608	0
930	10442.07929308666	1023.646201364479	0
931	10440.641939431	1023.72128069993	0
932	10440.62150313901	1023.720924765742	0
933	10439.27763101087	1023.852927813743	0
934	10439.26758495601	1023.852617597307	0
935	10437.72454600099	1024.010942040975	0
936	10440.64675070352	1023.720819923212	0
937	10439.25416081395	1023.846127009977	0
938	10439.24991972811	1023.846804296999	0
939	10437.69748814651	1024.010583520574	0
940	10437.69977882103	1024.010381403651	0
941	10416.07767670972	1025.170109796203	0
942	10416.07526646328	1025.17059574326	0
943	10414.68586013563	1025.291099771941	0
944	10416.10424166758	1025.163410703998	0
945	10414.6935546199	1025.283762877139	0
946	10414.68779006774	1025.29075990178	0
947	10411.88750330279	1025.676093315376	0
948	10411.87457976275	1025.676472809322	0
949	10410.44787821084	1025.548995679183	0
950	10413.44403106988	1023.79851985461	0
951	10410.35359446221	1025.282647699714	0
952	10410.44787821013	1025.548995679887	0
953	10407.76121355039	1026.114130297004	0
954	10407.7632171373	1026.113962398604	0
955	10406.42515727525	1026.166271663532	0
956	10406.42528602582	1026.16528419843	0
957	10405.11638970382	1026.258969210722	0
958	10407.76133341909	1026.115834361148	0
959	10406.43380473987	1026.169682552154	0
960	10406.42601632477	1026.166266332506	0
961	10404.98467459447	1026.245862926129	0
962	10404.98354815586	1026.238924613028	0
963	10403.54270766223	1026.39655788246	0
964	10404.98368219553	1026.245948317182	0
965	10403.54178795178	1026.401026167092	0
966	10403.54531497646	1026.400618544423	0
967	10400.81759451478	1026.559431566589	0
968	10400.8151938034	1026.558588140172	0
969	10399.45228681711	1026.742087784026	0
970	10399.46325287163	1026.741423003004	0
971	10398.14329308699	1026.917290596973	0
972	10400.81041370825	1026.531756786614	0
973	10399.48554066207	1026.732319775689	0
974	10399.45228681611	1026.74208778413	0
975	10398.1441985991	1026.917003291926	0
976	10398.14496420858	1026.916664755658	0
977	10390.79180425876	1027.247532123732	0
978	10390.78453726954	1027.247980185763	0
979	10389.49902403027	1027.31747521795	0
980	10390.78345961221	1027.246239202631	0
981	10389.497843949	1027.317985269406	0
982	10389.50013084741	1027.317428804284	0
983	10371.16376134601	1028.728265100228	0
984	10371.16728466657	1028.725691334499	0
985	10368.34734299706	1028.741716802045	0
986	10368.34581832484	1028.742368234025	0
987	10366.73474745907	1028.874787032867	0
988	10371.15733591447	1028.724985852946	0
989	10368.38835609182	1028.707153978273	0
990	10368.37955094551	1028.70875295536	0
991	10366.88492828322	1028.82044701476	0
992	10366.74371623833	1028.873896708623	0
993	10365.52357623841	1028.965061280709	0
994	10366.88883608713	1028.820984831739	0
995	10365.52957399674	1028.964427904006	0
996	10366.88440229617	1028.817692331443	0
997	10365.52557635368	1028.963287081752	0
998	10365.5242177151	1028.965220739035	0
999	10361.31824171654	1029.380722721495	0
1000	10361.29886886532	1029.380022104661	0
1001	10359.78171243698	1029.315270097332	0
1002	10361.31321845572	1029.380661794718	0
1003	10359.78374628825	1029.314019151263	0
1004	10361.31648067825	1029.378297175997	0
1005	10359.80111375404	1029.303626309414	0
1006	10359.78691743826	1029.313768929842	0
1007	10356.86444705344	1029.649183057048	0
1008	10356.86090478147	1029.648963997579	0
1009	10355.34142027247	1029.763888176077	0
1010	10356.89352230986	1029.549633733391	0
1011	10355.30050674297	1029.505361437772	0
1012	10355.3343964549	1029.763927218278	0
1013	10353.91732062227	1029.903892587485	0
1014	10353.9241774746	1029.903532969928	0
1015	10352.42649196349	1029.994210230108	0
1016	10353.93074968722	1029.880874844307	0
1017	10352.42881089617	1029.979060313667	0
1018	10352.42341727785	1029.993695195499	0
1019	10351.10014261082	1030.198720236917	0
1020	10352.42613926414	1029.985813433565	0
1021	10351.15685698005	1030.191627085924	0
1022	10351.09127633642	1030.200221465952	0
1023	10345.05644365706	1030.700817609538	0
1024	10345.05561173882	1030.699366830615	0
1025	10343.61635560309	1030.671158624987	0
1026	10343.37882008394	1030.507102922886	0
1027	10342.07249533005	1030.85104708809	0
1028	10345.1337442025	1030.667841572535	0
1029	10343.66973689228	1030.659090772068	0
1030	10343.6146200337	1030.671239071717	0
1031	10342.11391326678	1030.975082806523	0
1032	10342.11371831723	1030.974377306069	0
1033	10323.60122821354	1032.726418197519	0
1034	10323.60122821453	1032.726418197346	0
1035	10322.04905716194	1032.749756914244	0
1036	10323.71504228937	1032.66719198732	0
1037	10321.98550187893	1032.701722235332	0
1038	10322.04284266482	1032.751479735945	0
1039	10319.39040238461	1033.015118850457	0
1040	10319.31626036488	1032.981892563568	0
1041	10318.04366104955	1033.033785768674	0
1042	10319.38805417501	1033.015570542447	0
1043	10318.01379922713	1033.06283254636	0
1044	10318.0160632892	1033.061395110769	0
1045	10316.71696781145	1033.205377870588	0
1046	10318.02070872133	1033.066863981313	0
1047	10316.7358797814	1033.206018110452	0
1048	10316.73323240149	1033.205979807931	0
1049	10315.4043514183	1033.303216676805	0
1050	10316.91164795831	1033.176211139566	0
1051	10315.44743527882	1033.257671131184	0
1052	10315.39879254544	1033.303945505951	0
1053	10311.31615696389	1033.780900654107	0
1054	10311.3073244408	1033.78260191526	0
1055	10309.95821666637	1033.966819329259	0
1056	10309.96009278011	1033.961096494267	0
1057	10308.79615759174	1033.830734630951	0
1058	10311.30484539358	1033.781032554094	0
1059	10309.95844514145	1033.966337416566	0
1060	10309.95840479004	1033.966755869983	0
1061	10308.70250635513	1033.867697741104	0
1062	10308.78438580182	1033.833759521584	0
1063	10289.98282696774	1035.8374304969	0
1064	10289.98101018015	1035.837810497299	0
1065	10288.55627058546	1036.247833616944	0
1066	10289.98333299742	1035.828062959429	0
1067	10288.55475178117	1036.248079395661	0
1068	10288.55003521858	1036.248621989631	0
1069	10261.36690031492	1038.426945227277	0
1070	10261.36645127563	1038.42745477866	0
1071	10260.33361510791	1038.028094926531	0
1072	10260.33336398394	1038.02944696783	0
1073	10258.5866620392	1038.657059044004	0
1074	10261.38661073045	1038.400904964705	0
1075	10260.51001215915	1037.926168644421	0
1076	10260.50656849833	1037.927020617599	0
1077	10258.59500332365	1038.65601586288	0
1078	10258.58679703869	1038.656336977264	0
1079	10248.43093007879	1039.979391007301	0
1080	10248.42243900103	1039.980526109161	0
1081	10246.94915168265	1040.139432746565	0
1082	10248.41931588528	1039.977288354447	0
1083	10246.95018086921	1040.138350385406	0
1084	10246.9524387844	1040.137738011879	0
1085	10241.10779082433	1040.775968207305	0
1086	10241.09294049889	1040.776859704998	0
1087	10239.69135714124	1040.938541886143	0
1088	10241.09076862347	1040.779306551125	0
1089	10239.67782934197	1040.943357238269	0
1090	10239.68789251881	1040.942189605128	0
1091	10235.41028733138	1041.298347759115	0
1092	10235.40857777353	1041.298679255385	0
1093	10233.94557664333	1041.44445438934	0
1094	10235.40132047729	1041.296514129946	0
1095	10233.94737702728	1041.443132552364	0
1096	10233.94862205726	1041.443153142468	0
1097	10219.80194867889	1042.276477136646	0
1098	10219.7329173258	1042.126926792746	0
1099	10218.34330892165	1042.310535703143	0
1100	10219.78594157801	1042.278084203758	0
1101	10218.48376625079	1042.415666429285	0
1102	10218.48519246203	1042.415620097189	0
1103	10217.11591503143	1042.680368463977	0
1104	10217.11567820281	1042.680876101721	0
1105	10215.82143349156	1042.701521151159	0
1106	10217.11681078192	1042.68033404206	0
1107	10215.87241548132	1042.689466214881	0
1108	10215.82467169656	1042.701281266018	0
1109	10214.23330208238	1042.902603209037	0
1110	10214.22772000912	1042.900037360697	0
1111	10212.63359154814	1043.081460119553	0
1112	10214.238330253	1042.902436331016	0
1113	10212.62830321671	1043.083284892874	0
1114	10212.6228014746	1043.083982080873	0
1115	10209.71339080995	1043.181657323995	0
1116	10209.71567359054	1043.181239165964	0
1117	10208.26255678527	1043.401561756997	0
1118	10214.31862082657	1042.861384136441	0
1119	10209.68753525815	1043.141729465793	0
1120	10209.72449890803	1043.179901683466	0
1121	10208.26987863334	1043.402882587285	0
1122	10208.27085183807	1043.402836002203	0
1123	10206.85356633406	1043.440730305852	0
1124	10206.8543112369	1043.438541987854	0
1125	10205.14431424719	1043.137878946115	0
1126	10204.79535901241	1042.85823928012	0
1127	10203.91776448611	1043.461558028634	0
1128	10206.85325221375	1043.44004101927	0
1129	10205.59936265187	1043.468076583646	0
1130	10205.56955567459	1043.476599579827	0
1131	10203.96286017529	1043.493466835196	0
1132	10205.14027552798	1043.138216679264	0
1133	10203.95869565215	1043.489715497235	0
1134	10208.27118311939	1043.401820279425	0
1135	10205.64907182256	1043.517369188538	0
1136	10205.58211666197	1043.469478863342	0
1137	10204.13200846692	1043.557810539088	0
1138	10203.96255384023	1043.497146068325	0
1139	10202.831146793	1044.067923393538	0
1140	10204.24911175183	1043.533525607144	0
1141	10202.83428950082	1044.064795600067	0
1142	10202.83003233366	1044.068090197036	0
1143	10200.15460668205	1044.494564930103	0
1144	10200.11677750432	1044.504786990938	0
1145	10198.85852607723	1044.72153513116	0
1146	10200.15749473747	1044.493880988806	0
1147	10199.00188211254	1044.668002607634	0
1148	10198.84742552837	1044.722202374923	0
1149	10190.07864867712	1045.836909229928	0
1150	10190.06940643593	1045.837145756995	0
1151	10188.75970188933	1046.080220988154	0
1152	10190.07709179607	1045.836571090444	0
1153	10188.94922626559	1046.053557029314	0
1154	10188.76269059588	1046.079936002913	0
1155	10187.38158035837	1046.310713270024	0
1156	10190.07193937558	1045.835249490575	0
1157	10188.94234275949	1046.051383418985	0
1158	10188.93989944798	1046.051689090884	0
1159	10187.38680775053	1046.302050762771	0
1160	10187.38869466254	1046.30328801968	0
1161	10186.05594708932	1046.523829463246	0
1162	10187.39263276087	1046.29732310711	0
1163	10186.09556477607	1046.497854866815	0
1164	10186.06196441294	1046.52554245618	0
1165	10183.04073687832	1046.919904898823	0
1166	10183.03184449157	1046.92062299185	0
1167	10181.82394681019	1047.248902537313	0
1168	10183.03824548152	1046.903525852772	0
1169	10181.83798632658	1047.249140825301	0
1170	10181.82716990629	1047.248081909966	0
1171	10180.37882350931	1047.42302264799	0
1172	10180.36944237322	1047.42589943244	0
1173	10179.02969238186	1047.55433073045	0
1174	10180.36743799352	1047.424733409195	0
1175	10179.01492184721	1047.559188066644	0
1176	10179.01612751783	1047.556394796739	0
1177	10165.78588826966	1048.814977708949	0
1178	10165.74288311834	1048.802137766909	0
1179	10164.52441761089	1049.16718675162	0
1180	10165.78473792824	1048.81478203133	0
1181	10164.54319965318	1049.208144370804	0
1182	10164.54749547348	1049.207923278539	0
1183	10160.41857251232	1049.792710435239	0
1184	10160.42955029328	1049.785555908456	0
1185	10157.49063650636	1050.271011509477	0
1186	10160.42359569991	1049.844436655995	0
1187	10157.50191153251	1050.279581741472	0
1188	10160.41759002721	1049.792889493574	0
1189	10157.48702158103	1050.282266628485	0
1190	10157.49343026896	1050.280809643825	0
1191	10154.68131630717	1050.878348439081	0
1192	10154.66959533237	1050.879693837592	0
1193	10153.11596983412	1051.020090703245	0
1194	10154.68297008212	1050.878089473355	0
1195	10153.21923987723	1051.034016345433	0
1196	10153.2244508999	1051.034841976861	0
1197	10145.09093673228	1052.420844189586	0
1198	10145.08967374102	1052.421241067145	0
1199	10142.33365758809	1052.672754939169	0
1200	10145.10493412407	1052.419710440126	0
1201	10143.80101872132	1052.534161907728	0
1202	10143.80101872103	1052.534161906773	0
1203	10142.33692403371	1052.670955512436	0
1204	10143.68223299729	1052.473380057213	0
1205	10142.32193054119	1052.655417515796	0
1206	10142.3282977915	1052.671791708167	0
1207	10136.75886959469	1053.726753137027	0
1208	10136.75757420759	1053.730058628422	0
1209	10135.43265676482	1053.967293008071	0
1210	10135.43164910274	1053.966736668698	0
1211	10127.47666780773	1054.772707466616	0
1212	10127.44765061625	1054.778666394082	0
1213	10126.24908798838	1054.644722074227	0
1214	10127.47934030629	1054.77150266678	0
1215	10126.24402588531	1054.637957617158	0
1216	10126.24532145334	1054.645325998182	0
1217	10096.77936143822	1059.192472035267	0
1218	10096.79065112269	1059.220975700651	0
1219	10095.47442186703	1059.728579518547	0
1220	10096.78533654993	1059.192309767066	0
1221	10095.49182725746	1059.726738474086	0
1222	10095.47787529808	1059.727240606617	0
1223	10084.73044764309	1061.375116261205	0
1224	10084.72888256347	1061.375396305682	0
1225	10083.39925532061	1061.444286025284	0
1226	10084.89596484511	1061.217946241633	0
1227	10083.41870054017	1061.435774112555	0
1228	10083.39577507513	1061.444261362044	0
1229	10081.97787078532	1061.581771355609	0
1230	10081.95631864151	1061.5722237385	0
1231	10080.57328214037	1061.830962334236	0
1232	10081.97294089324	1061.58170766597	0
1233	10080.64565607811	1061.865775375431	0
1234	10080.64297121688	1061.867681027026	0
1235	10068.89653142411	1063.119951763962	0
1236	10068.88713307784	1063.118913967563	0
1237	10068.07948950159	1063.62401820338	0
1238	10069.5367054307	1063.611119004182	0
1239	10068.10693598934	1063.629628625749	0
1240	10068.07169290616	1063.625882547921	0
1241	10063.79572320199	1064.373121302332	0
1242	10063.78159871175	1064.403470974994	0
1243	10060.92652234437	1064.8084393944	0
1244	10063.79638370409	1064.372822434026	0
1245	10060.9149867262	1064.810031623535	0
1246	10060.91599748133	1064.809362993028	0
1247	10056.63576735294	1065.468584018588	0
1248	10056.62283689193	1065.470584544589	0
1249	10055.2786559906	1065.463051365882	0
1250	10056.61842021666	1065.468448556021	0
1251	10055.34876103007	1065.34763351124	0
1252	10055.27268943655	1065.46293185111	0
1253	10053.94517801239	1065.768595801407	0
1254	10055.3517780864	1065.346755650833	0
1255	10053.94731471195	1065.766109475017	0
1256	10053.9473481869	1065.766197789361	0
1257	10052.54097028285	1065.980257618534	0
1258	10052.5511508065	1065.977353040344	0
1259	10051.13795896257	1066.284717795942	0
1260	10052.55290965471	1065.971890840877	0
1261	10051.12886189292	1066.283713896974	0
1262	10051.14651277149	1066.286067167543	0
1263	10048.43659530205	1066.827468336751	0
1264	10048.43621387475	1066.826958484108	0
1265	10047.04441909127	1067.014929537391	0
1266	10048.47295382968	1066.816347483064	0
1267	10047.04732848704	1067.012037183555	0
1268	10047.04635072014	1067.012524102102	0
1269	10040.11831362418	1067.977393946862	0
1270	10039.92755078826	1067.9193827801	0
1271	10038.7140376289	1068.21453096403	0
1272	10040.12151929499	1067.979371167165	0
1273	10038.71575887822	1068.222445408302	0
1274	10038.71803924567	1068.222777196876	0
1275	10034.487632229	1068.751490271551	0
1276	10034.43202071546	1068.734221169936	0
1277	10033.14349232791	1068.993511226675	0
1278	10034.49095942603	1068.752113750255	0
1279	10033.14158763843	1069.014546852311	0
1280	10033.12863702118	1068.996243600395	0
1281	10031.74921752213	1069.162267581709	0
1282	10031.61739400247	1069.114995598606	0
1283	10030.26095955998	1069.211947395765	0
1284	10031.74612603173	1069.164650301989	0
1285	10030.28048709783	1069.255598673551	0
1286	10030.25671745588	1069.214098823399	0
1287	10027.64455720567	1069.92907768679	0
1288	10027.63660139241	1069.930073405515	0
1289	10026.11274233238	1070.234129774333	0
1290	10027.63315539885	1069.931099615057	0
1291	10026.12207911923	1070.233507742604	0
1292	10026.12096284224	1070.233504179741	0
1293	10013.66213364462	1071.506847763876	0
1294	10013.65756186529	1071.508869581294	0
1295	10012.36974796857	1071.740448794837	0
1296	10013.66162896477	1071.513293808895	0
1297	10012.36564928899	1071.755364683433	0
1298	10013.67879002904	1071.501814372439	0
1299	10012.38317479714	1071.749312519215	0
1300	10012.35394389086	1071.756351747785	0
1301	10001.28043422123	1073.711808018594	0
1302	10001.28559599898	1073.710637953157	0
1303	10000.00825870231	1073.854678967818	0
1304	10001.30316217971	1073.697957021616	0
1305	10000.07315691352	1073.790550865993	0
1306	10000.00307056291	1073.855834381863	0
1307	9988.315519901358	1075.755877395941	0
1308	9988.314575878552	1075.755999624649	0
1309	9986.889305713734	1075.872587753265	0
1310	9986.855036403673	1075.86080222127	0
1311	9985.273518887576	1076.269876843499	0
1312	9988.306528303825	1075.732662686131	0
1313	9986.917101869085	1075.881336353493	0
1314	9986.890719371042	1075.872320926955	0
1315	9985.325751332561	1076.278777727945	0
1316	9985.323415946392	1076.279367218517	0
1317	9983.907277530065	1076.542834221707	0
1318	9983.90264125334	1076.539571454291	0
1319	9982.534430697304	1076.779398390438	0
1320	9983.907320987712	1076.540289424441	0
1321	9982.534810272411	1076.784535590344	0
1322	9982.536460105557	1076.784180611001	0
1323	9981.059042971168	1077.171959518761	0
1324	9982.49083457095	1076.787652049692	0
1325	9981.380359439894	1077.047567758732	0
1326	9981.043914847252	1077.174408732901	0
1327	9979.780623265329	1077.444281703018	0
1328	9979.783152586175	1077.444052316584	0
1329	9978.182819305492	1077.754401822148	0
1330	9979.809845809434	1077.427102980346	0
1331	9978.197899844063	1077.748351444578	0
1332	9978.181108943323	1077.756757528804	0
1333	9975.309759027559	1078.303841902019	0
1334	9975.304564077122	1078.304800480795	0
1335	9972.735419375755	1078.708429281244	0
1336	9975.313197138896	1078.295253512581	0
1337	9972.738104753093	1078.706188345009	0
1338	9972.725837953769	1078.710635399801	0
1339	9969.708577528376	1079.297384569412	0
1340	9969.703587344446	1079.29816893277	0
1341	9968.534287938821	1079.626842953352	0
1342	9969.671339745471	1079.293496667816	0
1343	9968.530471882712	1079.627479744101	0
1344	9968.52902590839	1079.627727731887	0
1345	9948.434741998697	1082.847397049174	0
1346	9948.313672507187	1082.82356283282	0
1347	9947.081042212229	1083.067942124048	0
1348	9948.437712851946	1082.846536551641	0
1349	9947.082985670555	1083.07345211855	0
1350	9947.081746910868	1083.073989057959	0
1351	9942.697701088304	1083.834413748558	0
1352	9942.689614928799	1083.837124005111	0
1353	9941.411423694075	1083.978063267501	0
1354	9942.753428663635	1083.754493417758	0
1355	9941.529292766061	1083.746551615474	0
1356	9941.40260237752	1083.980712808031	0
1357	9938.389330447319	1084.545302719211	0
1358	9938.383372871655	1084.544625722499	0
1359	9937.102522849853	1084.704459925975	0
1360	9938.399091233945	1084.545462770756	0
1361	9937.10695183453	1084.707183161966	0
1362	9937.105085429072	1084.707487178865	0
1363	9935.767062845289	1084.978733529417	0
1364	9937.073578123878	1084.532789157824	0
1365	9935.787320976453	1084.964009629325	0
1366	9935.770238680436	1084.978367360481	0
1367	9930.046137649262	1085.944699628652	0
1368	9930.046208729678	1085.944729864106	0
1369	9928.601805905206	1086.198134196523	0
1370	9930.047414894254	1085.943933633915	0
1371	9928.592594402342	1086.192672362118	0
1372	9928.604370532392	1086.197834625326	0
1373	9901.140818907932	1090.375640344213	0
1374	9901.048159716431	1090.33522759657	0
1375	9900.600459094514	1091.56993947383	0
1376	9901.13701474988	1090.376706987397	0
1377	9900.62616677318	1091.566048437974	0
1378	9900.621234836601	1091.564359495371	0
1379	9880.992001133536	1096.042738853549	0
1380	9880.994019343847	1096.041661641281	0
1381	9880.790500297653	1096.078024745879	0
1382	9880.777258868095	1096.080532947132	0
1383	9876.523305010947	1097.018386200512	0
1384	9876.546698964981	1097.013201611825	0
1385	9868.512262166116	1098.391576892854	0
1386	9868.500336961353	1098.394567609818	0
1387	9866.576326947177	1098.399218739948	0
1388	9866.596501263497	1098.397855513414	0
1389	9865.20159831059	1098.482123570869	0
1390	9866.46420969978	1098.439114370419	0
1391	9865.220591033451	1098.227709692287	0
1392	9865.192545418346	1098.482861976748	0
1393	9839.873192490473	1101.930937569089	0
1394	9839.872956845871	1101.930500280855	0
1395	9838.437010527867	1102.161549760043	0
1396	9839.875375053542	1101.929463421957	0
1397	9838.430943699741	1102.161576028559	0
1398	9838.42280639069	1102.165365622771	0
1399	9835.518972403666	1102.535641204034	0
1400	9835.519103227469	1102.536260632418	0
1401	9834.06053174427	1102.730596823185	0
1402	9835.524282208282	1102.509097280682	0
1403	9834.084272480801	1102.718815204589	0
1404	9834.05947396967	1102.730717012748	0
1405	9829.746490477197	1103.200378436606	0
1406	9829.741592722423	1103.200069612046	0
1407	9828.535199252359	1103.258576477969	0
1408	9829.746923210163	1103.208258385077	0
1409	9828.477216344274	1103.285764797929	0
1410	9828.479753847589	1103.285568287844	0
1411	9819.449660993732	1104.330788221703	0
1412	9819.510330937554	1104.22794904592	0
1413	9818.034751619898	1104.477581989376	0
1414	9819.450716399295	1104.329865828909	0
1415	9818.017361433273	1104.529146691015	0
1416	9818.032487621475	1104.478138120343	0
1417	9813.555234425259	1105.234324440418	0
1418	9813.554236528382	1105.234708584268	0
1419	9812.117465776553	1105.373970335322	0
1420	9813.554769126064	1105.233163839923	0
1421	9812.126747415257	1105.339737332237	0
1422	9812.111539535241	1105.376260700962	0
1423	9792.847365129082	1108.966807017533	0
1424	9792.830275782328	1108.972066337388	0
1425	9791.513770303214	1108.92953590954	0
1426	9792.83894532779	1108.963118604185	0
1427	9791.52006781865	1108.919991839913	0
1428	9791.514786964171	1108.929290444764	0
1429	9777.191327050916	1111.56691686015	0
1430	9777.188255582079	1111.565547381999	0
1431	9775.717018016427	1111.722997551406	0
1432	9777.185656948293	1111.564873617549	0
1433	9775.733332671096	1111.717971294562	0
1434	9775.733489368338	1111.715977447614	0
1435	9774.255022984582	1111.959738159248	0
1436	9774.255229078683	1111.959058289488	0
1437	9772.726781292511	1112.269553385367	0
1438	9774.25294513313	1111.958457377129	0
1439	9772.757992562996	1112.26039495958	0
1440	9772.725348432703	1112.270065049968	0
1441	9771.257927829467	1112.526339154384	0
1442	9771.251020941692	1112.525917602564	0
1443	9769.780458090254	1112.760659072008	0
1444	9771.251571521074	1112.52693154167	0
1445	9769.787117098369	1112.759018974275	0
1446	9769.780519236969	1112.760885479307	0
1447	9765.334453343034	1113.511909237773	0
1448	9765.343552854514	1113.510530690795	0
1449	9763.887140063542	1113.673653941541	0
1450	9765.291469434078	1113.512488747841	0
1451	9763.846927544413	1113.668344421065	0
1452	9763.887360969862	1113.673630390333	0
1453	9752.677395828725	1115.309218421981	0
1454	9752.680148934245	1115.309195371077	0
1455	9751.201994432178	1115.499244020465	0
1456	9752.675486264607	1115.309245657181	0
1457	9751.197203513873	1115.496756361495	0
1458	9751.214776678864	1115.498328186229	0
1459	9742.630975294976	1116.723738728484	0
1460	9742.623508703868	1116.723884210262	0
1461	9741.090131249761	1116.732751560515	0
1462	9742.630347630829	1116.722330298541	0
1463	9741.08095811467	1116.7149169898	0
1464	9741.088090285777	1116.73304331508	0
1465	9739.984425047865	1116.568180315895	0
1466	9740.900877912392	1116.574520864663	0
1467	9740.09285084365	1116.297214078155	0
1468	9739.974202060139	1116.569200576323	0
1469	9722.116433412803	1119.655729710193	0
1470	9722.12102541953	1119.655534074335	0
1471	9720.765204091846	1119.9545941799	0
1472	9722.058167872239	1119.627473296799	0
1473	9720.681285730332	1119.929800435197	0
1474	9720.768589250989	1119.953868283345	0
1475	9704.080571986158	1123.242214778397	0
1476	9704.083117935586	1123.242554702971	0
1477	9703.991914976536	1123.254384984945	0
1478	9703.984961839118	1123.255193445169	0
1479	9696.866848424846	1124.194549112604	0
1480	9696.851487704394	1124.19269976839	0
1481	9695.622192259367	1124.344482182973	0
1482	9696.861098926	1124.195543628304	0
1483	9695.633736651313	1124.344481231502	0
1484	9696.839332699836	1124.19086839476	0
1485	9695.631584032724	1124.336127799905	0
1486	9695.621108347083	1124.346516587929	0
1487	9694.332090099515	1124.828121532933	0
1488	9695.378733825883	1123.838666500472	0
1489	9694.31182567933	1124.826359021846	0
1490	9694.330803046838	1124.826642551826	0
1491	9673.072535856691	1128.087313397643	0
1492	9673.159436468673	1128.081576694153	0
1493	9673.002034582705	1128.068083023421	0
1494	9673.068639394116	1128.08798517007	0
1495	9669.350510077687	1128.153367467696	0
1496	9669.446001862461	1128.125065464868	0
1497	9669.056870421797	1128.151640851009	0
1498	9669.349574023816	1128.154210479122	0
1499	9665.089622331712	1129.584099685367	0
1500	9665.089894142822	1129.585041526662	0
1501	9665.038349779008	1128.70509355566	0
1502	9665.16116463212	1129.484418010813	0
1503	9665.391155084546	1128.435163899722	0
1504	9665.034360243711	1128.703378359769	0
1505	9634.485524658268	1135.06286578425	0
1506	9634.487676116065	1135.062974984553	0
1507	9634.04298307243	1133.783412882572	0
1508	9634.443268340396	1135.026802800011	0
1509	9634.246482967328	1133.416866674221	0
1510	9634.033136708165	1133.784471626098	0
1511	9619.791777163655	1138.140142169082	0
1512	9619.795564896847	1138.137295272998	0
1513	9618.559207773293	1138.552352168638	0
1514	9619.780800078888	1138.11871296527	0
1515	9618.636274944571	1138.439003815255	0
1516	9618.542674550992	1138.556079817825	0
1517	9599.773573172473	1142.159788982141	0
1518	9599.748486948685	1142.15326727927	0
1519	9596.873711973991	1142.726368618254	0
1520	9599.774793069353	1142.15904387519	0
1521	9596.88122004159	1142.734812316538	0
1522	9596.877023559888	1142.734825026642	0
1523	9571.165025186763	1147.872288009581	0
1524	9571.167175652105	1147.871996137282	0
1525	9569.864821958121	1148.144521250817	0
1526	9571.174330984502	1147.867511837328	0
1527	9569.865569350362	1148.140325348954	0
1528	9569.866035827903	1148.139743692812	0
1529	9554.623628917247	1150.612066990201	0
1530	9554.618796768975	1150.612648709129	0
1531	9553.148267674804	1150.790031525916	0
1532	9554.642847255827	1150.608222982457	0
1533	9553.131500709716	1150.795016424557	0
1534	9553.149345900516	1150.794844640006	0
1535	9551.62514601823	1151.170694306981	0
1536	9553.151780005357	1150.796673065189	0
1537	9551.640814228374	1151.16984041336	0
1538	9551.636017770617	1151.16892949464	0
1539	9540.51147534423	1151.499924280366	0
1540	9540.50426691376	1151.502152302973	0
1541	9539.630323424337	1152.4372310988	0
1542	9540.039802086061	1150.14962259008	0
1543	9540.658654271128	1150.753792198385	0
1544	9539.632981199955	1152.435812701601	0
1545	9506.395279386461	1158.601153643649	0
1546	9506.390027687246	1158.602858144023	0
1547	9505.073326857493	1159.086865641403	0
1548	9506.361591573763	1158.589820565223	0
1549	9504.90071486711	1159.030424689786	0
1550	9505.061353162784	1159.091488630566	0
1551	9503.709366426194	1159.596216623199	0
1552	9503.71006109167	1159.596189206644	0
1553	9502.207628634418	1159.73456415135	0
1554	9503.747579283621	1159.567625843845	0
1555	9502.255114201058	1159.710407417747	0
1556	9502.204724617755	1159.736712341999	0
1557	9487.459520378898	1162.380050866567	0
1558	9487.446138810303	1162.38208397052	0
1559	9485.820155025978	1162.585091455608	0
1560	9487.46486095038	1162.378237534028	0
1561	9485.837656341058	1162.582308569472	0
1562	9485.818685369739	1162.585336993948	0
1563	9483.862254756221	1162.940804321192	0
1564	9485.818002327343	1162.584968235599	0
1565	9483.865552544348	1162.940774297365	0
1566	9483.865079060552	1162.940766732163	0
1567	9463.157051248994	1166.212167357141	0
1568	9463.137559838173	1166.213423336658	0
1569	9471.484829554387	1164.608381591404	0
1570	9471.484252615117	1164.608965845833	0
1571	9469.995525533837	1163.516043040792	0
1572	9469.994178984804	1163.515376377374	0
1573	9452.789021922328	1166.202942215155	0
1574	9452.75200317666	1166.202732880091	0
1575	9458.686900315492	1166.622069141881	0
1576	9458.666298622453	1166.622655277948	0
1577	9460.459349243227	1166.501120675493	0
1578	9460.46601848383	1166.500750341666	0
1579	9452.228389532096	1169.915673036357	0
1580	9452.228389531376	1169.91567303705	0
1581	9450.659732157868	1170.266437423271	0
1582	9452.25268320181	1169.908919556485	0
1583	9450.672460727068	1170.26935172665	0
1584	9450.660457754877	1170.267650919669	0
1585	9429.39261938456	1174.747461385306	0
1586	9429.395173513281	1174.746419949042	0
1587	9427.914230107797	1175.207664703953	0
1588	9429.410611531339	1174.693307161607	0
1589	9427.90644911567	1175.191003692393	0
1590	9427.911163969342	1175.202450440054	0
1591	9418.357394954512	1177.08512192323	0
1592	9418.168098539636	1177.100329140391	0
1593	9417.43212740142	1177.363358651686	0
1594	9418.356973092506	1177.085630316349	0
1595	9417.488164645159	1177.367632517668	0
1596	9417.485837382572	1177.369869289508	0
1597	9410.50448039263	1178.716102752597	0
1598	9410.515625159011	1178.702105670112	0
1599	9408.617437407227	1179.662694935168	0
1600	9410.508457019763	1178.713435758296	0
1601	9410.069263454627	1179.228946882308	0
1602	9410.626091180506	1178.654986098274	0
1603	9410.121866824649	1179.105330659816	0
1604	9410.066231731007	1179.230086665527	0
1605	9408.620084174165	1179.665402725915	0
1606	9408.622569582401	1179.665019406464	0
1607	9407.343580150262	1179.985392608262	0
1608	9407.342266156147	1179.985579474742	0
1609	9405.847171214462	1180.171060640913	0
1610	9407.342659325854	1179.984805586953	0
1611	9405.813999722892	1180.156663865645	0
1612	9405.813999721931	1180.156663865377	0
1613	9404.657049808475	1180.004191328314	0
1614	9405.889620603126	1180.177397186017	0
1615	9404.651377951095	1180.051270343545	0
1616	9404.646349872639	1180.052041490779	0
1617	9381.925816303787	1185.763893146492	0
1618	9381.920239867077	1185.765554122168	0
1619	9380.763008104854	1185.669795365325	0
1620	9381.922690581907	1185.765189714601	0
1621	9380.76239497787	1185.670661270358	0
1622	9380.763008103999	1185.669795365843	0
1623	9369.951282800344	1188.201135996463	0
1624	9369.964235124828	1188.200380026332	0
1625	9368.589681968288	1188.495977016662	0
1626	9369.944935119302	1188.199212344272	0
1627	9368.590650665237	1188.490083618663	0
1628	9368.58898280496	1188.496261614255	0
1629	9364.448089116117	1189.444391930066	0
1630	9364.451055220108	1189.441432705157	0
1631	9362.984334131825	1189.688657588504	0
1632	9364.457088443965	1189.43922938984	0
1633	9362.987900011363	1189.693650112189	0
1634	9362.989370657813	1189.69010867654	0
1635	9361.618892165066	1189.937131863	0
1636	9361.599292863526	1189.935856131681	0
1637	9360.014620311771	1190.105611652905	0
1638	9361.620093169788	1189.936638819328	0
1639	9360.158246444886	1190.100529819044	0
1640	9360.034301302798	1190.040223458719	0
1641	9358.943163823102	1190.375729202215	0
1642	9360.159788183855	1190.10019141683	0
1643	9358.961594368093	1190.418531026097	0
1644	9358.956158816318	1190.420430516313	0
1645	9352.209980566344	1191.472285244301	0
1646	9352.182728627658	1191.472453214059	0
1647	9350.532247870078	1191.509764796445	0
1648	9352.201073308066	1191.474399126505	0
1649	9350.583156624087	1191.545816890021	0
1650	9350.586099381826	1191.54422288903	0
1651	9337.996138562345	1195.312878682738	0
1652	9338.008390887322	1195.309525580153	0
1653	9336.580732460907	1195.631876170279	0
1654	9337.975610339849	1195.307209015351	0
1655	9336.574137980808	1195.630084840335	0
1656	9336.578276874969	1195.632502262558	0
1657	9332.579621733332	1196.639988221346	0
1658	9332.579558093936	1196.640079089534	0
1659	9331.270091963457	1196.934067707945	0
1660	9332.586519102822	1196.639287736846	0
1661	9331.276794231913	1196.932326571379	0
1662	9331.27718650946	1196.931462961484	0
1663	9329.730744495269	1197.257222335776	0
1664	9329.711855770658	1197.259151108439	0
1665	9328.153842827842	1197.46383673574	0
1666	9329.825193293569	1197.299886287743	0
1667	9328.247449457593	1197.48945377883	0
1668	9328.152818930817	1197.467113880406	0
1669	9320.387234881369	1199.137471993208	0
1670	9320.33670600231	1199.127195916037	0
1671	9318.790773591832	1199.177878725888	0
1672	9320.360872726966	1199.131515590922	0
1673	9319.160609619526	1199.434122618824	0
1674	9320.383959123852	1199.139834572769	0
1675	9319.158513952299	1199.436105802552	0
1676	9319.164906213688	1199.432118873765	0
1677	9311.536318535307	1201.514698311588	0
1678	9311.4725806837	1201.461213447776	0
1679	9310.127028457182	1201.914488816468	0
1680	9311.535761956	1201.513568299404	0
1681	9310.1408566911	1201.929088996054	0
1682	9310.139499744686	1201.928671918835	0
1683	9308.9332676063	1202.503931459363	0
1684	9310.138266768075	1201.934339436119	0
1685	9308.920538211873	1202.509886219912	0
1686	9308.923097969686	1202.509822359398	0
1687	9298.291734754925	1204.696441271896	0
1688	9298.273373159331	1204.712543775142	0
1689	9296.855829870956	1205.199636737048	0
1690	9298.292976998795	1204.695998430567	0
1691	9296.862684298236	1205.196104193193	0
1692	9296.857965738511	1205.200855045516	0
1693	9289.660417105964	1206.630613719176	0
1694	9289.648130001891	1206.632385528368	0
1695	9287.419429413645	1205.874466732415	0
1696	9287.410363650868	1205.865047208044	0
1697	9285.484958243576	1207.640629024191	0
1698	9289.644737404184	1206.636866856813	0
1699	9288.431692232725	1207.211595720184	0
1700	9288.408112698145	1207.222859680676	0
1701	9285.504774971085	1207.652452151747	0
1702	9285.501464027244	1207.654080283663	0
1703	9276.760505988825	1210.740891202009	0
1704	9276.764283409042	1210.737669713002	0
1705	9275.197786535979	1211.126357702273	0
1706	9276.733879432943	1210.735845326732	0
1707	9275.196408596874	1211.124459369084	0
1708	9275.189516334109	1211.128645168768	0
1709	9268.179100291809	1212.580128818992	0
1710	9268.154838750708	1212.576893106547	0
1711	9267.314657730012	1213.333188569865	0
1712	9268.179162039187	1212.580370755115	0
1713	9267.36808979634	1213.3415989932	0
1714	9267.366216869357	1213.343515324818	0
1715	9263.438767283167	1214.586456174853	0
1716	9263.439548989742	1214.586076806343	0
1717	9262.131662983023	1214.939043496345	0
1718	9263.433570450719	1214.591841285067	0
1719	9262.11951035898	1214.957196831823	0
1720	9262.124832232532	1214.955352415579	0
1721	9260.960213061169	1215.293697547601	0
1722	9262.095445850349	1214.977933109121	0
1723	9260.959964804848	1215.296076895563	0
1724	9260.960209575753	1215.293986014694	0
1725	9256.781135309511	1216.184030696486	0
1726	9256.750046942763	1216.177052005212	0
1727	9255.540283456116	1216.257034117181	0
1728	9256.780545559124	1216.184047402023	0
1729	9255.588142436138	1216.524675157361	0
1730	9255.590275655608	1216.523163407988	0
1731	9244.674310810815	1219.547210561649	0
1732	9244.677224105826	1219.547661842877	0
1733	9243.152404927578	1219.67288217733	0
1734	9243.146469372072	1219.673983855992	0
1735	9241.927911550169	1219.919976563858	0
1736	9244.670769892806	1219.548770763615	0
1737	9243.367497533805	1219.783925052513	0
1738	9243.36610897432	1219.784371078664	0
1739	9241.979515354722	1219.952062902993	0
1740	9241.974031213927	1219.951990705077	0
1741	9240.851594582526	1220.157776242532	0
1742	9241.982682431577	1219.971883962704	0
1743	9240.780237742385	1220.369823752423	0
1744	9240.78097863481	1220.367921021556	0
1745	9239.465163562616	1220.909411528902	0
1746	9240.8590373221	1220.156588181951	0
1747	9239.696133667961	1220.828638706409	0
1748	9239.464397281177	1220.907981259456	0
1749	9234.783337693816	1221.079207354567	0
1750	9234.783567441458	1221.078717865615	0
1751	9232.327976778948	1222.784492979047	0
1752	9235.476265953757	1219.880985809189	0
1753	9235.183183699284	1221.166846711668	0
1754	9235.24751266113	1220.839391357547	0
1755	9233.936141129534	1222.620974475109	0
1756	9233.931948807169	1222.619697002993	0
1757	9232.345355594853	1222.78787769732	0
1758	9233.935020243987	1222.619016032602	0
1759	9232.372839198297	1222.774917409069	0
1760	9232.369655279703	1222.775491802252	0
1761	9228.395277232883	1224.101942503662	0
1762	9228.360846876471	1224.087158027517	0
1763	9225.593369791191	1225.004602370055	0
1764	9228.391897848918	1224.105117141062	0
1765	9227.184724210218	1224.287719350883	0
1766	9227.295279863347	1224.315753566263	0
1767	9227.574738521451	1222.512096382254	0
1768	9227.576847780956	1222.507992021372	0
1769	9225.793776122691	1223.589047273889	0
1770	9227.482988125927	1222.391066158414	0
1771	9226.680753445524	1223.930214687119	0
1772	9227.178061868648	1224.288662346112	0
1773	9225.601797987149	1225.010133792793	0
1774	9225.592085613398	1225.005776954161	0
1775	9222.969140924919	1225.812555895989	0
1776	9222.570225688067	1225.626420271936	0
1777	9221.96491736375	1226.444118347401	0
1778	9222.958521064336	1225.813168964283	0
1779	9221.960566523858	1226.456316948522	0
1780	9222.964147948433	1225.812404912274	0
1781	9222.006709570922	1226.454101532738	0
1782	9221.971200282709	1226.449732969463	0
1783	9219.325945909108	1227.684747278661	0
1784	9219.326091033397	1227.682543065243	0
1785	9217.851800785387	1227.984636946739	0
1786	9217.801108989026	1227.929241869806	0
1787	9215.120514096381	1229.087990150067	0
1788	9219.331177188275	1227.684220440931	0
1789	9217.897728837072	1228.043739377349	0
1790	9217.84207847278	1227.990743368307	0
1791	9215.150788998983	1229.084330549731	0
1792	9215.148159021226	1229.085508090703	0
1793	9213.96087304496	1229.524498582698	0
1794	9213.902690404944	1229.496372809293	0
1795	9212.602240377759	1229.987031908344	0
1796	9213.949562669679	1229.529040171489	0
1797	9212.60854886284	1230.004759653823	0
1798	9212.602891679418	1230.009434775844	0
1799	9208.916876080706	1231.639696009181	0
1800	9208.912718222948	1231.640345810139	0
1801	9207.572126555757	1232.142575952825	0
1802	9208.902509603342	1231.647982719814	0
1803	9207.607004547635	1232.171809774524	0
1804	9207.607004546686	1232.171809774844	0
1805	9206.38325624004	1232.760417896178	0
1806	9207.607501793065	1232.176217997088	0
1807	9206.382944418963	1232.758407594878	0
1808	9206.381708384755	1232.760072119242	0
1809	9202.45802856716	1234.095750713398	0
1810	9202.453868964369	1234.087078074588	0
1811	9201.17115244645	1234.606704986108	0
1812	9202.45802856616	1234.095750713416	0
1813	9201.189111027777	1234.610509710958	0
1814	9201.19201481552	1234.609267743388	0
1815	9200.105919830055	1235.370132744077	0
1816	9200.118029563941	1235.362915121867	0
1817	9198.684476908538	1235.773604491583	0
1818	9198.685673153201	1235.773335879169	0
1819	9197.484014230735	1236.151656216085	0
1820	9198.677795887399	1235.779419693991	0
1821	9197.495528695714	1236.148978392029	0
1822	9200.216033390583	1235.338621836227	0
1823	9197.48762958497	1236.145826120756	0
1824	9197.486366712916	1236.150371470536	0
1825	9196.20404886643	1236.709415133432	0
1826	9196.193405574168	1236.70877133413	0
1827	9193.700130361527	1237.700676230048	0
1828	9196.209016815699	1236.706234773873	0
1829	9193.700167262921	1237.701276470716	0
1830	9193.703575064685	1237.702246946792	0
1831	9188.493957213517	1239.459681529073	0
1832	9188.460056593029	1239.438104307024	0
1833	9187.231233795885	1239.763307861474	0
1834	9188.498329433378	1239.459361717901	0
1835	9187.212421531482	1239.81287846248	0
1836	9187.208382667655	1239.811369797941	0
1837	9183.430859579837	1241.508330978103	0
1838	9183.423187105511	1241.510667369876	0
1839	9182.302460249071	1242.081573268029	0
1840	9183.41026885254	1241.463693881807	0
1841	9182.454948535973	1241.930948494481	0
1842	9182.280848310422	1242.092451093847	0
1843	9179.603718799268	1243.057700106543	0
1844	9179.603654871788	1243.057087284829	0
1845	9178.295261495607	1243.487549662581	0
1846	9179.618381487306	1243.051171100666	0
1847	9178.297998140921	1243.485186540136	0
1848	9178.297021094988	1243.485583661022	0
1849	9176.991424101432	1244.034645514916	0
1850	9176.994579885215	1244.031850582567	0
1851	9175.709575818926	1244.461124805592	0
1852	9176.990336217843	1244.037624184526	0
1853	9175.716651304863	1244.457343981574	0
1854	9175.708580861899	1244.459366931411	0
1855	9171.611085868693	1245.647612033684	0
1856	9171.475130866604	1245.600266440572	0
1857	9170.174345493922	1246.253789855365	0
1858	9171.603381724739	1245.653214465364	0
1859	9170.216522939159	1246.263547911962	0
1860	9170.177406487861	1246.253576897989	0
1861	9150.586085249712	1252.972762230295	0
1862	9150.336189511787	1252.81009882841	0
1863	9149.363055688487	1253.161446176244	0
1864	9150.586409140922	1252.97245097306	0
1865	9149.397616797187	1253.309513374991	0
1866	9149.396785060932	1253.310220454873	0
1867	9146.738610432871	1254.77338939647	0
1868	9146.704928893263	1254.764203152999	0
1869	9145.039155731409	1255.345206402492	0
1870	9146.737124139187	1254.770830349075	0
1871	9145.634579014857	1255.463785362813	0
1872	9145.638245975666	1255.460796274941	0
1873	9144.370266496984	1256.034154639242	0
1874	9144.37368045475	1256.033222272269	0
1875	9142.969391154043	1256.591423812652	0
1876	9144.373632891895	1256.032536994591	0
1877	9142.967068933956	1256.592857363084	0
1878	9142.970344970452	1256.591259875998	0
1879	9130.697106930385	1260.610524781174	0
1880	9130.659281207461	1260.604357771633	0
1881	9129.542956469004	1261.060525055586	0
1882	9130.693139732126	1260.611247393936	0
1883	9129.558106996808	1261.065870472789	0
1884	9129.559813014477	1261.065559651844	0
1885	9128.084447366693	1261.417361737299	0
1886	9128.082445481838	1261.419357283259	0
1887	9126.986596630437	1261.811806061253	0
1888	9126.977424959807	1261.814688290714	0
1889	9125.609240221091	1262.615587868001	0
1890	9127.979366018904	1261.372117408852	0
1891	9126.956886582333	1261.576219582568	0
1892	9126.951083842343	1261.578747973891	0
1893	9125.611310687682	1262.615556176486	0
1894	9125.609384840403	1262.615689701944	0
1895	9121.709444269976	1263.932715625539	0
1896	9121.675131361311	1263.921504109246	0
1897	9120.498786606049	1264.657485439684	0
1898	9121.72827372316	1263.934755534267	0
1899	9120.510948348647	1264.671989399106	0
1900	9120.506621108658	1264.672232600837	0
1901	9112.616436117509	1267.683146865315	0
1902	9112.577523271701	1267.668643274443	0
1903	9111.177949687366	1268.189994433225	0
1904	9112.620164999667	1267.680083375099	0
1905	9111.365900375631	1268.308586379224	0
1906	9111.368005931015	1268.307429006547	0
1907	9107.425429960744	1269.76898287062	0
1908	9107.426480469423	1269.768258276361	0
1909	9106.498280378439	1270.395950867317	0
1910	9106.991591239714	1269.457257378097	0
1911	9106.209851920083	1269.429238818842	0
1912	9106.498522846096	1270.397419791373	0
1913	9105.159030600675	1270.9782765599	0
1914	9105.114580183495	1270.961803170763	0
1915	9100.831154525602	1272.276263036403	0
1916	9105.160888564906	1270.976945280919	0
1917	9100.894065272672	1272.29417218444	0
1918	9100.829936618635	1272.276958301316	0
1919	9100.003957598698	1273.085390754041	0
1920	9099.982220183681	1273.083136752267	0
1921	9098.826782698126	1273.696793173989	0
1922	9099.995226699948	1273.088729328867	0
1923	9098.828759380753	1273.714705680934	0
1924	9098.835658039405	1273.713728844059	0
1925	9097.552978167596	1274.205352254641	0
1926	9097.509588335111	1274.177535588441	0
1927	9096.328172921594	1274.631038810677	0
1928	9097.556162162617	1274.204326732458	0
1929	9096.351180144358	1274.652981069421	0
1930	9096.349891342927	1274.653440722316	0
1931	9095.212235896806	1275.39633570572	0
1932	9096.493291774217	1274.638323203488	0
1933	9095.385493031439	1275.320793704863	0
1934	9095.214366342321	1275.394272203948	0
1935	9088.189840273082	1276.912009480697	0
1936	9088.19135939732	1276.910881103532	0
1937	9087.141015334628	1277.972200341706	0
1938	9087.132825310013	1277.97571866783	0
1939	9085.793086617674	1278.538417067191	0
1940	9088.178207776784	1276.856748376202	0
1941	9087.107366307659	1276.993858342348	0
1942	9087.111260794185	1276.991473466321	0
1943	9085.787798887462	1278.500047101838	0
1944	9085.788301450897	1278.540081968445	0
1945	9075.583038147388	1283.094783104912	0
1946	9075.535962155207	1283.086950031399	0
1947	9074.203791663569	1283.742270946951	0
1948	9075.588503109191	1283.093415416267	0
1949	9074.281203078424	1283.753002105131	0
1950	9074.278927993028	1283.753799225019	0
1951	9072.950059384837	1284.236638951147	0
1952	9072.951977071107	1284.213715992263	0
1953	9071.441707472624	1284.388194891794	0
1954	9072.946538996604	1284.239652363794	0
1955	9071.358370769916	1284.852200294712	0
1956	9071.354851189846	1284.811397956794	0
1957	9070.74252011442	1285.053876767246	0
1958	9070.296374488522	1284.971039067306	0
1959	9069.320290900925	1286.019457059969	0
1960	9071.359024482494	1284.8492040123	0
1961	9071.103554018233	1285.203620951317	0
1962	9070.736030623038	1285.058847371	0
1963	9069.405297251405	1286.001017860909	0
1964	9069.404336507314	1285.999240315601	0
1965	9068.275205252879	1286.868412646614	0
1966	9069.400834983089	1285.991951227704	0
1967	9065.841440381128	1287.975473477339	0
1968	9069.62706281178	1286.095914781918	0
1969	9068.272913579816	1286.868086865592	0
1970	9068.273538691572	1286.86912623163	0
1971	9065.842769127763	1287.97559545327	0
1972	9065.842312456864	1287.977153025429	0
1973	9063.083538605277	1289.059613203812	0
1974	9063.086277088836	1289.046252085227	0
1975	9061.702891300834	1289.485814854162	0
1976	9063.083538606234	1289.059613203525	0
1977	9061.722186753586	1289.485747183267	0
1978	9061.720413684883	1289.486073988865	0
1979	9060.637420065885	1290.127943838505	0
1980	9059.942910947271	1289.978275876465	0
1981	9059.412268003542	1290.720259311586	0
1982	9061.795553793689	1289.506061921737	0
1983	9060.722789035373	1290.138721303813	0
1984	9060.634219911224	1290.129593187775	0
1985	9059.413324836149	1290.731413715522	0
1986	9059.410481312296	1290.733101975401	0
1987	9053.19033058547	1293.971462873981	0
1988	9053.188709672782	1293.972439047341	0
1989	9051.846314280423	1294.170767804316	0
1990	9051.722036232446	1293.809787163405	0
1991	9050.541286964863	1294.723487922	0
1992	9053.190527306064	1293.972812880453	0
1993	9051.891250468378	1294.345908654625	0
1994	9051.884413270252	1294.346990332905	0
1995	9050.544090485566	1294.755447359306	0
1996	9050.546971703703	1294.753912011797	0
1997	9049.415959335476	1295.707692948128	0
1998	9049.412781235822	1295.70957093872	0
1999	9048.09388381793	1296.236179027845	0
2000	9049.419734581379	1295.710696027743	0
2001	9048.136182513916	1296.212776363008	0
2002	9048.093575404762	1296.237419317837	0
2003	9046.676112368828	1296.837572657058	0
2004	9046.475127852	1296.633845449737	0
2005	9045.321087781644	1297.35177485874	0
2006	9046.681072975824	1296.833354820784	0
2007	9045.328416456325	1297.362218174955	0
2008	9045.335544067913	1297.357379114946	0
2009	9037.771888120833	1300.885835753791	0
2010	9037.757933835657	1300.884111001528	0
2011	9036.35721771202	1301.498620905688	0
2012	9037.772733264077	1300.885502164535	0
2013	9036.36322684942	1301.512138914332	0
2014	9036.363766441818	1301.512999917898	0
2015	9025.703841192184	1306.976517240915	0
2016	9025.632537460535	1306.928585033995	0
2017	9024.410204785994	1307.657090713933	0
2018	9025.693989496189	1306.980159563705	0
2019	9024.473296848826	1307.71719598089	0
2020	9024.474046536923	1307.71689972603	0
2021	9022.046930582079	1308.889602532053	0
2022	9022.041026326749	1308.88838743087	0
2023	9020.795266713221	1309.485908274288	0
2024	9022.049631081825	1308.888143105075	0
2025	9020.8116836834	1309.491935415507	0
2026	9020.796071947343	1309.499755303942	0
2027	9019.723560995235	1310.220503259687	0
2028	9019.623694228774	1310.146454940128	0
2029	9018.393340415145	1310.966051786332	0
2030	9019.727630283744	1310.217931277517	0
2031	9018.399145285997	1310.960199697943	0
2032	9018.398100339122	1310.960745296636	0
2033	9017.126067296655	1311.568291713122	0
2034	9016.614784432268	1311.181211310232	0
2035	9015.533533936848	1312.008830698092	0
2036	9017.121468283915	1311.570846405765	0
2037	9015.554138526333	1312.008465179716	0
2038	9015.550864832132	1312.008031559427	0
2039	8996.710530162351	1321.5657400548	0
2040	8996.709015490966	1321.560089086527	0
2041	8995.566912916924	1322.031669328156	0
2042	8996.708150374403	1321.564322211876	0
2043	8995.549549405854	1322.050360285812	0
2044	8995.551731899419	1322.048834786943	0
2045	8994.295364195345	1322.764845789036	0
2046	8995.540620242378	1322.054670508162	0
2047	8994.288817218707	1322.764709063266	0
2048	8994.298411981008	1322.75959553338	0
2049	8988.210124256662	1325.839828504695	0
2050	8988.200052247719	1325.821983436675	0
2051	8986.869254630577	1326.461833586238	0
2052	8988.205831995345	1325.843007324556	0
2053	8986.965811639473	1326.519661338203	0
2054	8986.962639068215	1326.518053624113	0
2055	8984.491257061238	1327.733086687491	0
2056	8984.493835726671	1327.691530303539	0
2057	8982.943936335787	1328.018466658601	0
2058	8984.494982561848	1327.730878986431	0
2059	8982.994083770058	1328.074274598904	0
2060	8983.000799510404	1328.070173605827	0
2061	8980.775857492465	1329.564656275784	0
2062	8980.741879843716	1329.512236655303	0
2063	8978.996764783371	1329.446891806142	0
2064	8980.774023352651	1329.566813750825	0
2065	8979.169462356864	1329.64650993347	0
2066	8979.165655929073	1329.647910790931	0
2067	8973.454197143992	1333.410254158718	0
2068	8973.424358532577	1333.407140018136	0
2069	8972.097181839627	1333.712705988571	0
2070	8973.454962759393	1333.40984088505	0
2071	8972.099301497414	1333.742324006243	0
2072	8972.096283385175	1333.717372273499	0
2073	8969.949928791959	1335.292400896907	0
2074	8969.944489582964	1335.295915110873	0
2075	8968.635983759626	1335.89111109664	0
2076	8969.943969793063	1335.306722459261	0
2077	8968.646149046157	1335.88775665298	0
2078	8968.638476081227	1335.888706245025	0
2079	8967.309015388217	1336.304217434301	0
2080	8967.306469073765	1336.305884664064	0
2081	8964.604307915202	1337.567457044243	0
2082	8967.319301261805	1336.318917477438	0
2083	8964.642724044576	1337.582925128794	0
2084	8964.641032957154	1337.583745259372	0
2085	8963.557672599103	1338.287869150021	0
2086	8963.554448270146	1338.287473680508	0
2087	8962.144581780487	1338.933997388335	0
2088	8963.557672599623	1338.287869149165	0
2089	8962.156434781309	1338.920216393289	0
2090	8962.142009008063	1338.900970005906	0
2091	8960.873169973673	1339.078620357201	0
2092	8962.164631517919	1338.917990359565	0
2093	8960.935947634034	1339.457556045673	0
2094	8960.934639671779	1339.458196701228	0
2095	8958.743941533992	1340.986123843167	0
2096	8958.744689901288	1340.985899424579	0
2097	8949.958625782261	1345.02494711085	0
2098	8949.961968823258	1345.021178612496	0
2099	8948.82179538725	1345.65673693803	0
2100	8947.186391331523	1344.633741131986	0
2101	8947.471605838107	1345.567265971517	0
2102	8948.826833083591	1345.648306317063	0
2103	8947.470359411096	1345.583674310467	0
2104	8949.907420179306	1345.019831877113	0
2105	8947.491339059607	1345.568595101733	0
2106	8947.48627473715	1345.570724404361	0
2107	8929.556568859249	1355.105171051967	0
2108	8929.472461820713	1355.018434314149	0
2109	8928.112450975628	1355.878090549908	0
2110	8929.564743487977	1355.102119096707	0
2111	8928.168561737983	1355.891553362002	0
2112	8928.165958883446	1355.892897604781	0
2113	8923.540468553585	1358.392358164812	0
2114	8923.473635086802	1358.374865056948	0
2115	8921.164647651893	1359.875275565467	0
2116	8923.536991958694	1358.395653098997	0
2117	8922.667446781275	1359.294700949233	0
2118	8922.653669980415	1359.301192585088	0
2119	8921.21267116448	1359.871428297758	0
2120	8921.209996933083	1359.871736911849	0
2121	8920.140029255797	1360.693392076139	0
2122	8922.656914390611	1359.277103793883	0
2123	8921.416387756717	1359.826128648378	0
2124	8921.248989451373	1359.87359537879	0
2125	8920.154449608444	1360.691042863524	0
2126	8920.126744562656	1360.70191085197	0
2127	8915.319349336847	1363.326395240538	0
2128	8915.298203621312	1363.316061798912	0
2129	8913.024883172113	1363.281565720044	0
2130	8915.318767015089	1363.327059610381	0
2131	8914.40963403836	1364.368337938965	0
2132	8913.030549872221	1363.276612589806	0
2133	8912.982603305371	1364.67519939625	0
2134	8914.407884720435	1364.366786187888	0
2135	8912.994122286995	1364.670533448075	0
2136	8912.991593184428	1364.6719157489	0
2137	8898.972305153113	1370.279679657704	0
2138	8898.861712391916	1370.220096877868	0
2139	8899.09114908226	1371.508010044554	0
2140	8898.974551451347	1370.277957502822	0
2141	8899.125546145029	1371.640686300219	0
2142	8899.126372700566	1371.63563640951	0
2143	8887.767660154985	1377.608013172516	0
2144	8887.774072359191	1377.60300534533	0
2145	8886.639926251964	1378.419382348959	0
2146	8886.524511021134	1378.412270638266	0
2147	8885.228341971326	1379.006283938504	0
2148	8887.151471439307	1377.386465039692	0
2149	8886.620202342843	1378.403837907665	0
2150	8886.649273627007	1378.416801705506	0
2151	8885.301796534053	1379.064060219835	0
2152	8885.301172420752	1379.060865808448	0
2153	8883.922712369133	1379.828677775604	0
2154	8883.919532710815	1379.830804675657	0
2155	8882.864906768698	1380.49414558124	0
2156	8883.907991103277	1379.824659622056	0
2157	8882.900878837541	1380.446128685773	0
2158	8882.864906767782	1380.494145581644	0
2159	8878.580029229614	1383.033278241905	0
2160	8878.594339683472	1383.026684300812	0
2161	8879.421803976371	1382.081823589089	0
2162	8879.424947493369	1382.080028803994	0
2163	8877.053623824357	1383.740245815691	0
2164	8879.432885859549	1381.862429538671	0
2165	8878.222183362484	1381.307330338138	0
2166	8879.427448624543	1382.050801641711	0
2167	8878.420231798273	1381.067152602609	0
2168	8878.411570911843	1381.07379041375	0
2169	8877.28635095179	1382.804512519848	0
2170	8877.033900932927	1383.753924581839	0
2171	8877.687044745597	1383.402353103988	0
2172	8877.247415966171	1382.828625714188	0
2173	8876.570634544469	1383.34106165324	0
2174	8878.260557084193	1383.169249094849	0
2175	8871.002477300275	1386.992655704914	0
2176	8871.002892212893	1386.992514023661	0
2177	8869.571588646364	1386.973572821588	0
2178	8870.991563558457	1386.997138126782	0
2179	8869.604802320688	1387.007860449438	0
2180	8869.865442023392	1386.533924225821	0
2181	8870.190349146198	1384.623748721687	0
2182	8870.17226973262	1386.349769727245	0
2183	8870.147983663303	1384.634044143326	0
2184	8870.147959441301	1384.63705405493	0
2185	8869.014043823247	1387.567317697748	0
2186	8869.573422092175	1386.972997793919	0
2187	8867.511507141031	1388.095910830536	0
2188	8867.669206329027	1388.166921769873	0
2189	8867.240200542403	1388.049120180041	0
2190	8867.511373928444	1388.096679204341	0
2191	8866.625634295369	1389.320359097983	0
2192	8866.354156017756	1389.213709573073	0
2193	8865.28320632296	1390.100747958862	0
2194	8866.626884755891	1389.320715205629	0
2195	8865.336125681149	1390.133432348665	0
2196	8865.335469169137	1390.134628627356	0
2197	8862.952495855514	1391.788544347537	0
2198	8862.944266074634	1391.786492752849	0
2199	8861.73606406812	1392.404059828009	0
2200	8862.9474941963	1391.790367595995	0
2201	8861.734245624508	1392.410462542889	0
2202	8861.734245623529	1392.410462543096	0
2203	8860.361885413333	1392.938333185858	0
2204	8860.271942942329	1392.879907591464	0
2205	8859.261942801315	1393.736303311596	0
2206	8860.36324599866	1392.938891939537	0
2207	8859.264688957812	1393.745557504633	0
2208	8859.26012946381	1393.737337230244	0
2209	8851.811344473686	1398.082587527297	0
2210	8851.780193705852	1398.087735169985	0
2211	8850.581180643325	1398.678556662378	0
2212	8851.810730229905	1398.082391241526	0
2213	8850.591079415548	1398.700843281744	0
2214	8850.59020996958	1398.694653619855	0
2215	8849.46290221255	1399.563116217366	0
2216	8850.591460103189	1398.701150801141	0
2217	8849.45846713396	1399.567947299297	0
2218	8849.460237924339	1399.563695625268	0
2219	8846.621271824215	1400.671103826895	0
2220	8846.667695833514	1400.603910581878	0
2221	8846.559648938661	1400.680661830663	0
2222	8846.627267493741	1400.668078022345	0
2223	8845.535368790856	1401.702690622592	0
2224	8845.531532990639	1401.70545656075	0
2225	8844.286271779567	1402.445004627315	0
2226	8845.529314233774	1401.710119553219	0
2227	8844.289285764518	1402.454192482805	0
2228	8844.286962888129	1402.443820610774	0
2229	8843.108726681448	1403.165590982317	0
2230	8843.107305168875	1403.168121894498	0
2231	8841.837486675055	1403.797151645476	0
2232	8843.115065362241	1403.024800031772	0
2233	8841.782769972868	1403.564993265874	0
2234	8841.840810453667	1403.794841569778	0
2235	8835.601542921117	1407.417150300572	0
2236	8835.59514538113	1407.420152287341	0
2237	8834.18397861461	1407.903460082313	0
2238	8833.961139337689	1407.677480307652	0
2239	8832.95857588342	1408.206886148751	0
2240	8835.609786121577	1407.423049031697	0
2241	8834.312175250996	1408.025379601666	0
2242	8834.314215135268	1408.026165240482	0
2243	8833.116407593376	1408.579958261217	0
2244	8833.116208391641	1408.580946800058	0
2245	8826.819414140164	1412.476268142269	0
2246	8826.733410855641	1412.409636507497	0
2247	8824.323653665584	1413.687986742349	0
2248	8826.818613038189	1412.476495610417	0
2249	8824.346876390229	1413.747220539154	0
2250	8824.34844057782	1413.744064974132	0
2251	8819.583223796721	1416.796227920064	0
2252	8819.577290179861	1416.800581793707	0
2253	8819.473171933349	1416.858173404509	0
2254	8819.530242133011	1416.823004091752	0
2255	8817.399336370641	1417.866593762408	0
2256	8817.369494155713	1417.854155735912	0
2257	8815.993650948736	1418.633122780372	0
2258	8817.400255244493	1417.866408824562	0
2259	8815.993405834752	1418.634314693497	0
2260	8815.943968314308	1418.649353523072	0
2261	8814.676123878859	1419.310195212501	0
2262	8816.202686721104	1418.664748422254	0
2263	8814.726296748047	1419.294346596427	0
2264	8815.993564353403	1418.634234043708	0
2265	8814.739772980027	1419.29768430571	0
2266	8814.728223987169	1419.296741946035	0
2267	8810.367113851598	1421.44525578821	0
2268	8810.368054167722	1421.445027465828	0
2269	8808.831492646126	1421.953092905255	0
2270	8810.328535241197	1421.467953022774	0
2271	8808.800173155118	1421.980298284102	0
2272	8808.798600676551	1421.981255303081	0
2273	8802.035713546136	1423.350684510288	0
2274	8802.033198766361	1423.3464848396	0
2275	8797.225513936994	1413.857479997966	0
2276	8797.218018246343	1413.842062013594	0
2277	8796.558817738971	1412.710335362801	0
2278	8797.278764271212	1413.87541052604	0
2279	8796.592197702013	1412.72897805523	0
2280	8796.560918169051	1412.711147388824	0
2281	8795.510230414488	1412.839397877832	0
2282	8795.486656330448	1412.779187524439	0
2283	8794.316025916645	1412.724265189991	0
2284	8795.509455978887	1412.83664019213	0
2285	8794.333197387468	1412.725060818888	0
2286	8794.332077263969	1412.724928821357	0
2287	8789.786771579269	1415.407828311347	0
2288	8790.001433008956	1415.412869228531	0
2289	8789.61983722538	1416.499364121066	0
2290	8789.787750030931	1415.40947689631	0
2291	8789.416906812496	1416.279308643201	0
2292	8789.608386680668	1416.502789068068	0
2293	8790.552902525162	1418.828396786792	0
2294	8790.553954897727	1418.828279350487	0
2295	8790.863702799126	1419.891563149103	0
2296	8790.574361153203	1418.838548266545	0
2297	8790.896169705351	1419.853837258022	0
2298	8790.894140508897	1419.852417363399	0
2299	8801.572197304135	1423.410734654756	0
2300	8798.292986850154	1423.625628618395	0
2301	8801.389193682355	1424.919708548797	0
2302	8801.576040957721	1423.410476138234	0
2303	8801.709468240728	1425.0104101692	0
2304	8801.710873147213	1425.013106705027	0
2305	8793.473120320328	1433.873762646562	0
2306	8793.406538123256	1433.886745312415	0
2307	8792.250751404013	1434.837963858353	0
2308	8793.469173713564	1433.880638423598	0
2309	8792.298221324401	1434.845424304278	0
2310	8792.289953760765	1434.857207291932	0
2311	8791.683277522277	1435.891530205024	0
2312	8792.297264511699	1434.845777552607	0
2313	8791.679037401855	1436.008973821321	0
2314	8792.248136209806	1434.87054537393	0
2315	8791.667113515117	1436.01745583549	0
2316	8791.67926368159	1436.008989295683	0
2317	8790.558516419003	1437.043864784719	0
2318	8790.558027339363	1437.044579773649	0
2319	8789.74796722963	1438.136711039453	0
2320	8790.439016867376	1437.0645761597	0
2321	8789.669936234519	1438.098453470569	0
2322	8789.750592949722	1438.13294970351	0
2323	8784.298404042273	1442.546338811251	0
2324	8784.29181877932	1442.534021859286	0
2325	8783.144781202025	1443.566152891064	0
2326	8784.298698858523	1442.547161928979	0
2327	8783.160559777965	1443.585585902932	0
2328	8783.160903725207	1443.580383761963	0
2329	8776.589386630536	1448.973563299156	0
2330	8776.118057746773	1448.777039914408	0
2331	8775.747086867281	1449.888934839804	0
2332	8776.58480442962	1448.973971969159	0
2333	8775.74114819155	1449.952145821594	0
2334	8775.734627175434	1449.958142690457	0
2335	8774.624212896584	1450.944839220474	0
2336	8774.448071451416	1450.783360561346	0
2337	8773.422855983425	1451.745891770674	0
2338	8775.619299211094	1450.090759227704	0
2339	8774.636308320953	1450.943080897751	0
2340	8774.6209900505	1450.948441253003	0
2341	8773.432767684671	1451.776365356357	0
2342	8773.430506595569	1451.774561278502	0
2343	8768.67008118695	1455.287202356223	0
2344	8768.431951255878	1455.163723114131	0
2345	8766.786516531547	1457.289411473129	0
2346	8768.671048159375	1455.283700421203	0
2347	8766.906623118159	1457.38827090052	0
2348	8766.905785000914	1457.388630430862	0
2349	8765.007346642697	1459.278862953656	0
2350	8764.635435387818	1459.179150733813	0
2351	8763.852341280288	1460.258778150055	0
2352	8765.012296393945	1459.275732958992	0
2353	8763.893223021698	1460.281197493929	0
2354	8763.89216574175	1460.28084401763	0
2355	8761.828995489655	1462.118447623142	0
2356	8761.829682204445	1462.117862440589	0
2357	8760.789471856346	1462.95601178139	0
2358	8760.7961458386	1462.974733770777	0
2359	8759.918436802798	1464.057505371191	0
2360	8761.833697501037	1462.116476513507	0
2361	8760.790129843443	1462.953555608126	0
2362	8761.825852856216	1462.112714875213	0
2363	8760.772762746792	1462.948734501488	0
2364	8760.790762651397	1462.955913166363	0
2365	8759.919181499505	1464.069098390792	0
2366	8759.91189014615	1464.069951311172	0
2367	8754.506774476509	1468.625638193395	0
2368	8754.524990410659	1468.62158526722	0
2369	8753.229498394592	1469.631545061631	0
2370	8754.506940201294	1468.625759092165	0
2371	8753.226115513107	1469.636083925009	0
2372	8753.232608903652	1469.633973768585	0
2373	8744.412246261922	1476.560544538304	0
2374	8744.401319044848	1476.558175930419	0
2375	8742.721871828182	1478.466682196625	0
2376	8744.411523093297	1476.561182382718	0
2377	8742.728253324573	1478.465994275432	0
2378	8742.736164513733	1478.461534368733	0
2379	8739.661060675118	1481.10214518962	0
2380	8739.596682162612	1481.085434183182	0
2381	8738.383575203707	1481.955444409101	0
2382	8739.648219231867	1481.112856252577	0
2383	8738.490085627023	1482.001588664172	0
2384	8738.487648302025	1482.005834479097	0
2385	8734.472792050017	1485.575757770745	0
2386	8734.444746616789	1485.560088296719	0
2387	8733.393816499423	1486.427448593387	0
2388	8734.477146721832	1485.576377709708	0
2389	8733.445663615325	1486.44440605984	0
2390	8733.440165699996	1486.447175958805	0
2391	8729.195501234391	1489.561174298403	0
2392	8729.197605148771	1489.563558977413	0
2393	8728.194398212823	1490.884477290198	0
2394	8729.259854299804	1489.332006900254	0
2395	8728.236137223803	1490.85710251517	0
2396	8728.195850211496	1490.884806744707	0
2397	8724.719272149856	1493.741413908824	0
2398	8724.702460913371	1493.742737214798	0
2399	8723.610241933899	1494.505553886964	0
2400	8724.711488663941	1493.745046440026	0
2401	8723.621891848232	1494.516268753368	0
2402	8723.623621043023	1494.514473714826	0
2403	8721.552677981143	1496.27882427584	0
2404	8721.55394271562	1496.277838186668	0
2405	8720.487037765708	1497.033214968683	0
2406	8721.567986758802	1496.28027651872	0
2407	8720.507916774712	1497.047078174527	0
2408	8720.503594711898	1497.048243134496	0
2409	8719.369628818049	1498.08934701374	0
2410	8719.344905873377	1498.080710695042	0
2411	8718.113741792409	1498.887365120141	0
2412	8719.370182737168	1498.088144764388	0
2413	8718.185820250148	1498.922598295811	0
2414	8718.187682780173	1498.920211152375	0
2415	8717.136735071714	1499.937612525527	0
2416	8717.140781889904	1499.933755119447	0
2417	8716.156401154627	1500.932493019712	0
2418	8717.162028118268	1499.930491897707	0
2419	8716.191711963033	1500.94807973172	0
2420	8716.198212727531	1500.944134359326	0
2421	8713.066146744912	1503.524000902758	0
2422	8713.073671375356	1503.518325153261	0
2423	8712.04738879984	1504.487334964404	0
2424	8713.071891445919	1503.521487503296	0
2425	8712.040566046302	1504.490185055499	0
2426	8712.046812267852	1504.48668244602	0
2427	8708.581018446488	1506.87086518997	0
2428	8708.581721847388	1506.870290825168	0
2429	8707.317232623909	1507.817091831101	0
2430	8708.604010016245	1506.879400556435	0
2431	8707.508423633817	1507.816652659314	0
2432	8707.506296325666	1507.817884759285	0
2433	8706.36330644625	1508.643474085834	0
2434	8706.30661828854	1508.645274228839	0
2435	8705.211465253784	1509.54650017829	0
2436	8706.364815299681	1508.65772503537	0
2437	8705.087520925803	1509.513499349445	0
2438	8706.359807824958	1508.646092422836	0
2439	8705.308184573021	1509.571314445537	0
2440	8705.301560652062	1509.574548345943	0
2441	8704.392739605037	1510.604099008753	0
2442	8705.314559289442	1509.569991841106	0
2443	8704.395371245284	1510.59982765789	0
2444	8704.388087570473	1510.605520624034	0
2445	8703.162127724479	1511.562367320185	0
2446	8703.125139307971	1511.553201056175	0
2447	8701.906170432545	1512.403023439269	0
2448	8703.160678186063	1511.569834259057	0
2449	8701.942020221219	1512.39242630632	0
2450	8701.933790652658	1512.399217162628	0
2451	8701.060057106673	1513.438373888593	0
2452	8700.990973766375	1513.439605947922	0
2453	8699.875406759422	1514.223679739316	0
2454	8701.066190124531	1513.432739904134	0
2455	8699.844495687639	1514.274067474282	0
2456	8699.830869158372	1514.269701460811	0
2457	8699.005067808373	1515.30287238256	0
2458	8699.843925207946	1514.270830431683	0
2459	8699.005291829622	1515.306576510355	0
2460	8699.009283442347	1515.302583844776	0
2461	8695.285501023553	1517.924215475171	0
2462	8695.285600544756	1517.924520222536	0
2463	8694.208816938923	1518.999303710166	0
2464	8695.267411565585	1517.697752692256	0
2465	8694.119422576672	1518.562181418036	0
2466	8694.213025523293	1518.993852429712	0
2467	8692.979031573957	1519.964554464102	0
2468	8692.975566020721	1519.955736431834	0
2469	8691.762519811133	1520.832899364642	0
2470	8692.98015064261	1519.963524050035	0
2471	8691.766340255772	1520.862194353894	0
2472	8691.770938537111	1520.856788621129	0
2473	8690.603254599353	1521.980492071073	0
2474	8691.779522888666	1520.886282703586	0
2475	8690.625776555205	1521.966707028212	0
2476	8691.804156591594	1520.830800689924	0
2477	8690.627267061542	1521.946829275915	0
2478	8690.614889300106	1521.977583609505	0
2479	8687.758881397278	1524.545753949367	0
2480	8687.767095777284	1524.542526684166	0
2481	8685.097594068628	1527.063182973007	0
2482	8687.767086872833	1524.544083963227	0
2483	8685.08639824491	1527.072149939249	0
2484	8685.083184902976	1527.074417910235	0
2485	8676.432000367391	1534.111468434843	0
2486	8676.431327371332	1534.112281505683	0
2487	8680.070964833392	1531.118333422426	0
2488	8676.384165168709	1534.118231121575	0
2489	8679.305537903792	1531.514098088225	0
2490	8680.058000753988	1531.130019024947	0
2491	8672.051074501449	1538.222988261731	0
2492	8672.053516475547	1538.222123584699	0
2493	8670.932105082758	1539.097303106795	0
2494	8672.05034785201	1538.223493028743	0
2495	8670.938706159561	1539.095003739469	0
2496	8670.931139142676	1539.098057858553	0
2497	8668.349724346923	1541.006571315882	0
2498	8668.186484932137	1540.984337631007	0
2499	8667.270934053869	1541.91769120183	0
2500	8668.340505714767	1541.014372704828	0
2501	8667.306620511265	1541.930126771928	0
2502	8667.271292447333	1541.91686844641	0
2503	8666.182854730641	1542.955859684841	0
2504	8666.184207963435	1542.952947225023	0
2505	8664.996406722947	1543.904012362694	0
2506	8666.184738872091	1542.951072001604	0
2507	8665.004668900039	1543.889092970394	0
2508	8664.996940996198	1543.903505445702	0
2509	8661.621379104805	1546.928041365935	0
2510	8661.611983299366	1546.924458098459	0
2511	8660.588611578261	1547.932650400972	0
2512	8661.621295731535	1546.927752255895	0
2513	8660.578981694269	1547.943286864171	0
2514	8660.559370586421	1547.955376420853	0
2515	8659.402267004332	1548.931965422266	0
2516	8659.37929890815	1548.929956003963	0
2517	8658.121199044976	1549.691732197474	0
2518	8659.416070351434	1548.920119182875	0
2519	8658.142004692681	1549.709018342152	0
2520	8658.151305148409	1549.705550636077	0
2521	8656.132743577758	1551.769654076504	0
2522	8656.134295796348	1551.77061950668	0
2523	8654.775225424763	1552.537660411919	0
2524	8654.640994885262	1552.435829278501	0
2525	8653.881822867521	1553.418922726461	0
2526	8656.134958591696	1551.767848322753	0
2527	8654.795426673079	1552.536038740303	0
2528	8654.791872849584	1552.539128352752	0
2529	8653.901363947034	1553.43597780028	0
2530	8653.897009357695	1553.435036025749	0
2531	8649.673855283125	1557.518140368139	0
2532	8649.627589134479	1557.418057063897	0
2533	8648.484722875584	1558.280437554247	0
2534	8649.624277834408	1557.424613662229	0
2535	8648.532125726675	1558.389978121232	0
2536	8649.672512559935	1557.521451650111	0
2537	8648.59610797926	1558.375004834974	0
2538	8648.534436439912	1558.389857204032	0
2539	8647.52066898532	1559.24982786662	0
2540	8647.517940392872	1559.225074369598	0
2541	8646.119632461954	1559.978044887541	0
2542	8647.520618530538	1559.249794865337	0
2543	8646.358035153478	1560.127842245391	0
2544	8646.355071116772	1560.129831475767	0
2545	8641.870011042482	1565.352158720171	0
2546	8641.866053815533	1565.355715413365	0
2547	8640.387818751622	1566.080838505784	0
2548	8640.387551783946	1566.084679102527	0
2549	8639.721276941693	1567.298217044101	0
2550	8641.876244362096	1565.344523905944	0
2551	8640.80853804666	1566.256215798413	0
2552	8640.80315680133	1566.261703141225	0
2553	8639.799546268549	1567.261441577263	0
2554	8639.805208672185	1567.264133104162	0
2555	8638.575644599432	1568.284251190568	0
2556	8638.550559655561	1568.273792510625	0
2557	8637.340618605123	1569.05830526283	0
2558	8639.798019245891	1567.263374467776	0
2559	8638.726957796274	1568.312423497719	0
2560	8638.77881003195	1568.169786387371	0
2561	8638.622929785701	1568.41001521515	0
2562	8638.577080336874	1568.28605385883	0
2563	8637.491267264979	1569.186758745955	0
2564	8637.49084491209	1569.187420759332	0
2565	8636.382641847615	1571.722612333225	0
2566	8636.729801420372	1571.665044559285	0
2567	8635.100274022416	1572.745796844041	0
2568	8636.38704766119	1571.719123291067	0
2569	8635.115564234247	1572.739362769886	0
2570	8635.113928243058	1572.744778131849	0
2571	8633.142857831086	1574.945388182929	0
2572	8633.136135755483	1574.949898724905	0
2573	8632.213024645092	1576.000745160297	0
2574	8633.142048782802	1574.9463607006	0
2575	8632.233486547751	1575.985604874217	0
2576	8632.207689856916	1576.007373243945	0
2577	8626.385217791709	1581.360482578733	0
2578	8627.301324072605	1580.516947874521	0
2579	8629.163780546251	1580.140566999349	0
2580	8627.195667296046	1580.602776127936	0
2581	8629.16016431503	1580.180791702646	0
2582	8629.163267021866	1580.141205581499	0
2583	8628.538521738954	1581.152620258342	0
2584	8628.492174753866	1581.085536047174	0
2585	8627.479973589192	1581.946365378791	0
2586	8628.53552613532	1581.153834006061	0
2587	8627.499842686842	1581.953550905532	0
2588	8627.499842685846	1581.953550905593	0
2589	8625.242572815614	1583.601841598221	0
2590	8625.312164496971	1583.56918881177	0
2591	8625.229566930639	1583.594366426075	0
2592	8625.184949559311	1583.618103435252	0
2593	8625.374889237757	1582.26664375807	0
2594	8625.241055882618	1583.594875088404	0
2595	8625.849377473487	1581.831559978579	0
2596	8625.849291537621	1581.835777592623	0
2597	8623.106990385089	1584.190357778796	0
2598	8623.056582675536	1584.091153356333	0
2599	8621.835817831243	1585.198232934765	0
2600	8623.114961666883	1584.184652193358	0
2601	8621.846402656096	1585.213978331002	0
2602	8621.847587039452	1585.211711772075	0
2603	8619.638662304043	1587.140817717032	0
2604	8619.462502489792	1586.837128623885	0
2605	8617.003273278844	1588.528777597881	0
2606	8619.634591992164	1587.144403238512	0
2607	8617.389762350542	1589.042812606472	0
2608	8617.389141504447	1589.044055323995	0
2609	8607.37147497267	1597.377426491467	0
2610	8607.344145617624	1597.366492313479	0
2611	8606.558628067882	1598.375209123653	0
2612	8607.371627673665	1597.377359910353	0
2613	8606.622786498427	1598.370718026104	0
2614	8606.619273617524	1598.371895240179	0
2615	8605.44648314901	1599.247838908691	0
2616	8605.413206594663	1599.225669896771	0
2617	8604.169596387588	1600.025938336458	0
2618	8605.439494158943	1599.257884732218	0
2619	8604.314107922057	1600.120162869892	0
2620	8604.266466181683	1600.090215042246	0
2621	8603.528543939812	1601.161835498318	0
2622	8604.313786494533	1600.121121739888	0
2623	8603.533932675093	1601.182692229966	0
2624	8603.531566986241	1601.183380367514	0
2625	8601.491995182731	1603.038013054159	0
2626	8601.487400161061	1603.03580649588	0
2627	8600.185641979131	1603.847320575448	0
2628	8601.492590450749	1603.037342942596	0
2629	8600.276079923837	1603.967678517314	0
2630	8600.2724862103	1603.972790883417	0
2631	8599.130985050355	1604.791681001188	0
2632	8599.143175493225	1604.713460125313	0
2633	8598.985633749069	1604.782107514146	0
2634	8599.133254958577	1604.791730199504	0
2635	8598.502162835395	1606.177314634163	0
2636	8598.27843479872	1606.098729173521	0
2637	8597.521784223538	1607.190578972937	0
2638	8598.501130888993	1606.180143736733	0
2639	8597.539893932813	1607.21436619367	0
2640	8597.53930039891	1607.215026348796	0
2641	8596.448790929438	1608.349463345888	0
2642	8596.442346488226	1608.357257481399	0
2643	8595.685003051525	1609.295213460732	0
2644	8596.478846655808	1608.341029320958	0
2645	8595.686880036616	1609.275805983415	0
2646	8595.681222863104	1609.223265050785	0
2647	8594.238995562295	1610.245826800481	0
2648	8595.686634316653	1609.277097674946	0
2649	8594.342610649792	1610.295211511235	0
2650	8594.338960638701	1610.296027605767	0
2651	8592.703515189702	1612.383151781158	0
2652	8592.695271949689	1612.388654904845	0
2653	8591.882012623902	1613.358669985726	0
2654	8592.703515190527	1612.383151780594	0
2655	8591.878317344179	1613.370515612957	0
2656	8591.8720699032	1613.376344881224	0
2657	8587.75008598871	1617.193389958635	0
2658	8587.746846863794	1617.19916551753	0
2659	8586.596926700908	1617.975117596368	0
2660	8586.56318303208	1617.949874641741	0
2661	8585.434619344682	1618.656312369111	0
2662	8587.751353205336	1617.199353282766	0
2663	8586.633130696058	1617.992433606068	0
2664	8586.599024530888	1617.974408741959	0
2665	8585.485039517704	1618.703807774904	0
2666	8585.484081594021	1618.70531308892	0
2667	8581.342217284024	1622.58021169297	0
2668	8581.31766046001	1622.5087972068	0
2669	8580.133987092026	1623.459457958691	0
2670	8581.333704965809	1622.612706931969	0
2671	8580.509224911862	1623.950418888623	0
2672	8581.337032831985	1622.574610149026	0
2673	8580.295666409575	1623.580576630995	0
2674	8581.342645121387	1622.58316303229	0
2675	8580.325484749961	1623.603024770213	0
2676	8580.29474241784	1623.580878495998	0
2677	8579.482740616024	1624.785875610572	0
2678	8579.468662329118	1624.785058654273	0
2679	8578.628720692182	1625.724109366852	0
2680	8579.485077389609	1624.781425908461	0
2681	8578.619344533787	1625.759099527774	0
2682	8578.621861077188	1625.75628956304	0
2683	8575.24242092746	1629.647541994647	0
2684	8575.241973138849	1629.650386026274	0
2685	8575.53995777912	1630.075800557653	0
2686	8575.242383864637	1629.65389095694	0
2687	8575.556118983624	1630.079350437547	0
2688	8575.542133298497	1630.072521036841	0
2689	8574.941430268971	1629.910780480602	0
2690	8574.93943671811	1629.912900428257	0
2691	8572.570684671004	1630.883781669053	0
2692	8573.00864509625	1630.4548479585	0
2693	8572.133631391351	1631.293088636584	0
2694	8572.575338250992	1630.880858150203	0
2695	8571.837953091321	1632.707770650571	0
2696	8571.82135533869	1632.71660024515	0
2697	8570.341963759047	1633.873606067152	0
2698	8571.833971077789	1632.712560745776	0
2699	8570.554601681588	1633.858404302974	0
2700	8570.341934041537	1633.875165894489	0
2701	8569.752893309445	1634.98383359175	0
2702	8570.557102689259	1633.855899053959	0
2703	8569.754146234007	1634.981967415098	0
2704	8569.749263388227	1634.987465250777	0
2705	8566.114081408514	1639.17756210903	0
2706	8566.109290964947	1639.189465098325	0
2707	8565.041279958934	1640.182135037051	0
2708	8566.062003483466	1639.230804828003	0
2709	8565.040932883638	1640.182737882219	0
2710	8565.044056836565	1640.181012985382	0
2711	8562.97651766952	1641.971157276784	0
2712	8562.947547789643	1641.957019998511	0
2713	8562.024602244668	1643.055861451588	0
2714	8562.976453622099	1641.996640122883	0
2715	8562.036856751705	1643.053943410505	0
2716	8562.972754468146	1641.973619272103	0
2717	8562.043304771139	1643.04955812166	0
2718	8562.036567565467	1643.052537558846	0
2719	8561.278903572174	1644.241568871708	0
2720	8562.078969596902	1643.042135568709	0
2721	8561.281841662631	1644.240736604672	0
2722	8561.277922012361	1644.242514447121	0
2723	8560.41047625532	1645.376047088688	0
2724	8560.412594651343	1645.373964202684	0
2725	8558.438468560535	1647.666749497274	0
2726	8558.442001513615	1647.662018258605	0
2727	8556.026014178691	1649.478591397165	0
2728	8556.023009052778	1649.474237385473	0
2729	8555.093038313886	1650.401344863562	0
2730	8556.025424724075	1649.480309164041	0
2731	8555.09060115888	1650.490413051938	0
2732	8555.091246097223	1650.488062140938	0
2733	8553.054688946568	1652.419624697575	0
2734	8553.042595140241	1652.4182423314	0
2735	8550.402963646027	1653.971637959863	0
2736	8553.052402925512	1652.421810075039	0
2737	8550.582453533594	1654.097199741426	0
2738	8550.586619434229	1654.094875823292	0
2739	8547.143200083816	1658.37512229406	0
2740	8547.149732739561	1658.390731762287	0
2741	8545.97647423671	1658.977501726708	0
2742	8547.143200083026	1658.375122294676	0
2743	8546.032842814568	1658.877141254917	0
2744	8546.033833681608	1658.804228878078	0
2745	8545.752142262712	1659.177270091807	0
2746	8546.032672819756	1658.877544459383	0
2747	8545.344529094107	1660.508797674705	0
2748	8547.138154131701	1658.358474756921	0
2749	8545.693724801849	1658.422985243801	0
2750	8545.992092187726	1658.947553301903	0
2751	8545.334667549536	1660.518316769631	0
2752	8545.34452909311	1660.508797674712	0
2753	8540.508707716208	1666.195927720669	0
2754	8540.491212144201	1666.19976429318	0
2755	8539.536272922573	1667.272979248531	0
2756	8539.100684214782	1667.277880835999	0
2757	8538.716209786669	1668.432634857806	0
2758	8540.509438181432	1666.194959945436	0
2759	8539.53983972177	1667.270296418039	0
2760	8539.539018822312	1667.271089813272	0
2761	8538.737550490428	1668.435814719841	0
2762	8538.720043456336	1668.434495209003	0
2763	8537.971041280513	1669.567027813899	0
2764	8538.738089453747	1668.435198457518	0
2765	8537.97623857956	1669.564673836727	0
2766	8537.968460910777	1669.567531613957	0
2767	8536.098132181154	1671.680600662301	0
2768	8536.030261774255	1671.724272348722	0
2769	8532.282266804583	1675.857769775747	0
2770	8536.0965004763	1671.684431950692	0
2771	8535.964490928998	1672.717262785056	0
2772	8535.970642949653	1672.71094858674	0
2773	8535.013061031821	1673.575051219101	0
2774	8535.967466547196	1672.69908629934	0
2775	8534.826212538215	1673.305973723113	0
2776	8535.009378394423	1673.576449903031	0
2777	8532.318485250502	1676.01140399795	0
2778	8532.358048522585	1676.158517652557	0
2779	8531.474999307369	1677.247300274678	0
2780	8532.318485250255	1676.011403996982	0
2781	8531.483183318118	1677.240354215786	0
2782	8531.482597509601	1677.23838019627	0
2783	8527.430336907315	1681.176885712604	0
2784	8527.426051550787	1681.108599049483	0
2785	8526.319971560972	1682.055641757908	0
2786	8527.433606184813	1681.173950011676	0
2787	8526.330660312045	1682.074366140984	0
2788	8526.330660311354	1682.074366140263	0
2789	8525.521611757124	1683.300241970207	0
2790	8525.52029008596	1683.301172685268	0
2791	8524.258895284156	1683.753795195139	0
2792	8524.25674317801	1683.756631666181	0
2793	8520.878752475825	1686.978213252092	0
2794	8525.540516264127	1683.297422443238	0
2795	8524.429667587441	1684.001313736172	0
2796	8524.431850782095	1683.998994465074	0
2797	8520.930796239167	1687.016761576863	0
2798	8520.931188688	1687.014650176049	0
2799	8520.27208751207	1688.506409706096	0
2800	8520.265591446436	1688.481122158864	0
2801	8520.223663319799	1688.546434107093	0
2802	8520.224438018022	1688.547456003928	0
2803	8513.692996602809	1698.155722528939	0
2804	8513.69397125019	1698.157305723741	0
2805	8512.27588535008	1699.731024370153	0
2806	8512.273227943608	1699.731831420744	0
2807	8509.271924319017	1702.131309697514	0
2808	8509.266518741859	1702.113464626244	0
2809	8508.360392310658	1703.239135221256	0
2810	8509.265215164878	1702.135117959225	0
2811	8508.387604053523	1703.263764368349	0
2812	8508.359673547935	1703.240425274541	0
2813	8507.285830788727	1704.336701746156	0
2814	8507.265305622526	1704.339641342931	0
2815	8506.316903352972	1705.398109852008	0
2816	8507.284175905597	1704.338202465349	0
2817	8506.349839420187	1705.403534608558	0
2818	8506.354203461726	1705.398408165061	0
2819	8504.086815561883	1707.42860711696	0
2820	8503.980078171155	1707.440556663216	0
2821	8503.281322123306	1708.301562955461	0
2822	8504.080940798171	1707.432288393444	0
2823	8503.3175086301	1708.362212888033	0
2824	8503.279124672421	1708.303076155009	0
2825	8484.273441311883	1731.713770768447	0
2826	8484.269020268626	1731.716384055224	0
2827	8483.393940983236	1732.671613634212	0
2828	8484.273441311116	1731.713770769091	0
2829	8483.397502730089	1732.672220092967	0
2830	8483.39245104453	1732.679193807268	0
