idx	X	Y	component
0	1000	1126.770548776496	0
1	1001.999637432318	1126.706856962292	0
2	1001.999651945721	1126.706856330803	0
3	1003.001268554147	1126.691295782784	0
4	1003.001271684707	1126.691296040025	0
5	1058.113431207109	1124.830847962832	0
6	1058.113229550495	1124.830860159078	0
7	1059.076291123512	1124.553867073968	0
8	1058.113431208105	1124.830847962735	0
9	1059.076468954734	1124.553847859787	0
10	1059.076475153664	1124.553847623548	0
11	1069.908874737204	1122.458962138623	0
12	1069.908845538723	1122.458964225588	0
13	1070.873681377377	1122.184550093574	0
14	1069.909060573803	1122.458964624858	0
15	1070.87383001844	1122.18455840804	0
16	1070.873672497743	1122.184552620132	0
17	1579.790380320453	1127.987819367654	0
18	1579.790371906788	1127.987808791724	0
19	1580.734193747235	1128.32990921712	0
20	1579.790380321439	1127.987819367485	0
21	1580.734100653734	1128.329888445904	0
22	1580.734201546609	1128.329909196588	0
23	2560.050926964562	1115.496044995057	0
24	2560.050787012783	1115.496030846237	0
25	2560.945672247262	1115.952011799754	0
26	2560.05091535013	1115.49604919574	0
27	2560.945614597236	1115.951987757654	0
28	2560.945610120268	1115.951983293862	0
29	2744.906540101117	1136.863041799154	0
30	2744.906455076609	1136.863061746402	0
31	2745.873429362633	1137.138815709027	0
32	2744.906583684202	1136.863041629942	0
33	2745.873396851708	1137.13880176617	0
34	2745.873290693463	1137.138815060145	0
35	3123.324282410754	1119.703621338519	0
36	3123.323537620437	1119.703634908868	0
37	3124.323809299762	1119.597963510709	0
38	3123.324246734272	1119.70362094708	0
39	3124.323772171513	1119.597970548705	0
40	3124.323809300762	1119.597963510727	0
41	3470.972982545451	1125.633664727497	0
42	3470.972932794298	1125.633646837356	0
43	3471.96760504075	1125.797113175975	0
44	3470.972950274526	1125.63366635679	0
45	3471.967385733481	1125.797136117458	0
46	3471.967786417598	1125.797104256519	0
47	3756.661144122627	1111.208760621023	0
48	3756.661144121975	1111.208760620266	0
49	3757.655036740718	1111.401127200998	0
50	3756.661162457426	1111.208836771372	0
51	3757.655145398819	1111.401163943111	0
52	3757.655082087801	1111.401157882904	0
53	3855.140361563877	1125.034435233616	0
54	3855.139968784202	1125.034218770177	0
55	3856.051794753685	1125.487452264736	0
56	3855.140329772538	1125.034409982947	0
57	3856.052050749195	1125.487418395686	0
58	3856.051980026117	1125.487474923507	0
59	3936.107067262645	1135.462799462912	0
60	3936.106645739213	1135.462932918902	0
61	3937.129667050428	1135.50821524095	0
62	3936.106880524834	1135.46277488729	0
63	3937.129523435866	1135.508048124802	0
64	3937.129803782836	1135.508156811273	0
65	4270.882721804237	1116.850361173367	0
66	4270.890630577051	1116.849955898141	0
67	4271.008901566399	1116.841434677724	0
68	4271.008477789643	1116.841479247812	0
69	4371.30529795992	1107.299864971379	0
70	4371.304367687284	1107.300401606652	0
71	4373.470817320519	1107.006209299568	0
72	4371.304538924035	1107.300125374556	0
73	4373.477348574232	1107.005051590976	0
74	4373.474805297074	1107.005356640897	0
75	4374.571772575959	1106.842554068175	0
76	4374.56982688239	1106.842826556432	0
77	4375.630029217024	1106.75806552932	0
78	4374.572357171988	1106.842672644045	0
79	4375.628166196112	1106.758375733065	0
80	4375.627960820741	1106.758464939538	0
81	4580.74929100544	1064.976189479871	0
82	4580.694781177471	1064.987683046087	0
83	4787.756431787985	1000.072391019301	0
84	4580.752406756552	1064.975786985319	0
85	4716.672449883185	1030.166370961299	0
86	4787.751502527888	1000.071148720741	0
87	4786.725319954975	1000.000759799874	0
88	4787.750057420113	1000.074686087397	0
89	4786.729510216132	1000.000537862913	0
90	4786.730550569357	1000	0
91	4716.694458215067	1030.160450823798	0
92	4716.672280721224	1030.16593027121	0
93	5251.588743916202	1129.53638251023	0
94	5251.584457721594	1129.54372495637	0
95	5251.591223230375	1129.534915484429	0
96	5251.590869682183	1129.536631081113	0
97	5766.34107571496	1131.71296833179	0
98	5766.344437245308	1131.712991970032	0
99	5767.40774285154	1131.704191649888	0
100	5766.344336475962	1131.713556183868	0
101	5767.405860898201	1131.704624332208	0
102	5767.406015365937	1131.704534266539	0
103	5791.492332055255	1128.53580746984	0
104	5791.49084513344	1128.537787586875	0
105	5793.552068493505	1129.321122137595	0
106	5791.506324441929	1128.535036964107	0
107	5793.425271755729	1128.164458928157	0
108	5793.536482453874	1129.330983517135	0
109	5793.575877803526	1129.306484824609	0
110	5793.554905173298	1129.318152662782	0
111	5793.436711280658	1128.158455745563	0
112	5793.435441922714	1128.163482008865	0
113	5814.451168345376	1121.496772911887	0
114	5814.452302503126	1121.49663264518	0
115	5815.404233734766	1121.123314775842	0
116	5814.454092012117	1121.496709483308	0
117	5815.405820760054	1121.123268379419	0
118	5815.404618501825	1121.123340117258	0
119	6174.511005437987	1122.174262036649	0
120	6174.51157995355	1122.174259050178	0
121	6253.861756464152	1122.61542068841	0
122	6253.863812044639	1122.615428613753	0
123	6254.895623832498	1122.634934949995	0
124	6253.862794478229	1122.615421244466	0
125	6254.89573262366	1122.63496169374	0
126	6254.896837139345	1122.634935711543	0
127	6599.969227270654	1121.931185016926	0
128	6599.969390326752	1121.931185138815	0
129	6600.999038579769	1121.912579591777	0
130	6599.969148121865	1121.931180820348	0
131	6600.998808319631	1121.912574261964	0
132	6600.998573511972	1121.91257570277	0
133	6634.804908257088	1121.520126805085	0
134	6634.804753493788	1121.520125820382	0
135	6636.850041533269	1121.519185400478	0
136	6634.804908256089	1121.520126805051	0
137	6636.850277517235	1121.519194947628	0
138	6636.850219250115	1121.519194913879	0
139	6660.304073927258	1121.888877376834	0
140	6660.303932173368	1121.88887788784	0
141	6661.317053813823	1121.89202712162	0
142	6660.303945963529	1121.888876426066	0
143	6661.316768363432	1121.891996327631	0
144	6661.316818830618	1121.891997501598	0
145	6993.030799462525	1121.114267965637	0
146	6993.030745700448	1121.114257479815	0
147	6994.043540229028	1121.034044289437	0
148	6993.03077055829	1121.114267996648	0
149	6994.043937656227	1121.034044857085	0
150	6994.044004835359	1121.034046652309	0
151	7003.154379135537	1120.66505490699	0
152	7003.156751260674	1120.665028036934	0
153	7004.165186445628	1120.601973290231	0
154	7003.155328814919	1120.665054679317	0
155	7004.164994667293	1120.601977712707	0
156	7004.165149852732	1120.601981412502	0
157	7213.190998471289	1124.516300454578	0
158	7213.190948266037	1124.516316825398	0
159	7214.192660283844	1124.397037463637	0
160	7213.19099461499	1124.51629680099	0
161	7214.192753010305	1124.397055306961	0
162	7214.192634291227	1124.397040558233	0
163	7368.151461352264	1115.414538735698	0
164	7368.151650147749	1115.414559033269	0
165	7369.110416214999	1115.109007156028	0
166	7368.151577396577	1115.414539033166	0
167	7369.110567596981	1115.109037156313	0
168	7369.11059800788	1115.109038483823	0
169	7522.883253761431	1120.984816821552	0
170	7522.883253762376	1120.984816821226	0
171	7523.814296052656	1120.608716808553	0
172	7522.883398806339	1120.984848901489	0
173	7523.814384399847	1120.608703414371	0
174	7523.814433509154	1120.608709240484	0
175	7837.300281677342	1120.467428790013	0
176	7837.30029319468	1120.467428639258	0
177	7838.278428025291	1120.695238290263	0
178	7837.300530724821	1120.467403452673	0
179	7838.278506131163	1120.695243376215	0
180	7838.278412396054	1120.695235426982	0
181	8344.306935110017	1121.401323541576	0
182	8344.306948510526	1121.401325448239	0
183	8345.294278309497	1121.222103282614	0
184	8344.306861767072	1121.401330643924	0
185	8345.294683870898	1121.222119348763	0
186	8345.294393024109	1121.222100643278	0
187	8362.02447867147	1117.805442182096	0
188	8362.024695924461	1117.805446285804	0
189	8362.998702500481	1117.568767514085	0
190	8362.024503151686	1117.805436937389	0
191	8362.998719695517	1117.56875273689	0
192	8362.998631921189	1117.568770374751	0
193	8691.18470846827	1117.350758295888	0
194	8691.184739357988	1117.350769656288	0
195	8692.154355921975	1117.607616115102	0
196	8691.184751725574	1117.350755566923	0
197	8692.1545442142	1117.607618219865	0
198	8692.154535354883	1117.607619280366	0
199	8798.993678776866	1128.65450136372	0
200	8798.993519197416	1128.654497270332	0
201	8799.986643592028	1128.522229888853	0
202	8798.993706676296	1128.654502145836	0
203	8799.986583380087	1128.522230541033	0
204	8799.986562114427	1128.522230150344	0
205	9210.195279117217	1119.515882901117	0
206	9210.195295982734	1119.515882526172	0
207	9210.254957783918	1119.521872322354	0
208	9210.254983471226	1119.521871896125	0
209	9721.302028231379	1106.71378455954	0
210	9721.302116071098	1106.713763899024	0
211	9722.283582100399	1106.917789292384	0
212	9721.301948844002	1106.713780155077	0
213	9722.283489805519	1106.917793178296	0
214	9722.283553462599	1106.917793742204	0
215	9811.105970866074	1116.110430337888	0
216	9811.105999052115	1116.110435682693	0
217	9812.069361191563	1116.389346962698	0
218	9811.106095380037	1116.110413734289	0
219	9812.069470722288	1116.389365066254	0
220	9812.069424316862	1116.389348931978	0
221	9897.77717766684	1127.008794945355	0
222	9897.777125886656	1127.008796937676	0
223	9898.780977467568	1127.03991073823	0
224	9897.777215978098	1127.008816337943	0
225	9898.781029753187	1127.03993650577	0
226	9898.780989532323	1127.039909805543	0
227	9970.887507668254	1121.14908186263	0
228	9970.887405870559	1121.149082627853	0
229	9971.857783334874	1121.390687931095	0
230	9970.887507903872	1121.149076929085	0
231	9971.858350873024	1121.390676318736	0
232	9971.857783643645	1121.390688008258	0
233	10103.57749323316	1117.600683305387	0
234	10103.57739401823	1117.600677834799	0
235	10103.60483143196	1117.601813353166	0
236	10103.60483143096	1117.601813353116	0
237	10188.73868093632	1127.326149514744	0
238	10188.73830724869	1127.326165026855	0
239	10189.57295318284	1127.875015643516	0
240	10188.73877059346	1127.326159956672	0
241	10189.57298198355	1127.875008845472	0
242	10189.57305268921	1127.875017758072	0
243	10790.57478325546	1108.206526740156	0
244	10790.5747422717	1108.206511234203	0
245	10791.51660830996	1108.548355557421	0
246	10790.57484827098	1108.206521724036	0
247	10791.51665932621	1108.548350023666	0
248	10791.51664881811	1108.548349873605	0
249	11077.9237189368	1121.853217782595	0
250	11077.92364275587	1121.85324027312	0
251	11078.89127564109	1121.59017888582	0
252	11077.92374638331	1121.853216592913	0
253	11078.89119435451	1121.590179578611	0
254	11078.8911896214	1121.590180384539	0
255	11127.66106832216	1115.606045375347	0
256	11127.66107330037	1115.606042205515	0
257	11128.65802269281	1115.507695829365	0
258	11127.66107136054	1115.606040186174	0
259	11128.65812919998	1115.507687514773	0
260	11128.65816793127	1115.507678622502	0
261	11134.54534507354	1114.250340819472	0
262	11134.54541327145	1114.250307782992	0
263	11135.54468451628	1114.163908316736	0
264	11134.5453700933	1114.250329689576	0
265	11135.54458834979	1114.163925661809	0
266	11135.54468699703	1114.163917198794	0
267	11158.44120499845	1111.369452397288	0
268	11158.44121119096	1111.36943917745	0
269	11159.44012291916	1111.286045858138	0
270	11158.44120402269	1111.369452388963	0
271	11159.44012930246	1111.286049942332	0
272	11159.44011004271	1111.286048254463	0
273	11291.62980680036	1119.28757215465	0
274	11291.62969741551	1119.287580054725	0
275	11292.6285393023	1119.379961946557	0
276	11291.62977091293	1119.287575494103	0
277	11292.62859741378	1119.379951602757	0
278	11292.62860826135	1119.379959149982	0
279	11418.78500336408	1111.386018112078	0
280	11418.78500677759	1111.386014552561	0
281	11419.78713985673	1111.401494304836	0
282	11418.78500032236	1111.386018112669	0
283	11419.78717667412	1111.40150661122	0
284	11419.78718974989	1111.401509322694	0
285	11420.78677489006	1111.493746086406	0
286	11420.78679639996	1111.493741347337	0
287	11421.77221788984	1111.678595533134	0
288	11420.78675257882	1111.493740559476	0
289	11421.77213096819	1111.678592929775	0
290	11421.772126378	1111.678593205803	0
291	11449.53550346244	1115.839827893738	0
292	11449.53548590319	1115.839818146785	0
293	11450.51074779431	1116.072714268721	0
294	11449.53553469569	1115.839834318626	0
295	11450.5107009796	1116.072715497534	0
296	11450.51071126575	1116.072717550774	0
297	11451.47859979615	1116.336251808136	0
298	11451.47861381241	1116.336256643262	0
299	11452.46356927403	1116.527040864513	0
300	11451.47860894831	1116.336255213661	0
301	11452.46354432289	1116.527022835918	0
302	11452.46354432388	1116.527022836089	0
303	11459.4579625814	1117.125281953213	0
304	11459.45796163392	1117.12528875137	0
305	11460.45167848342	1117.25146339767	0
306	11459.45796147532	1117.125281764996	0
307	11460.45172118737	1117.251454149947	0
308	11460.45172074123	1117.251454704716	0
309	11609.64650741994	1112.335424300707	0
310	11609.64654452613	1112.335414979365	0
311	11610.6373570296	1112.482524773117	0
312	11609.64652703402	1112.335423611288	0
313	11610.63733713397	1112.482523583884	0
314	11610.63733782128	1112.482523581186	0
315	11893.05025995524	1119.353604369912	0
316	11893.05029559086	1119.353614910269	0
317	11894.05004982533	1119.291217940244	0
318	11893.05026251821	1119.353604365833	0
319	11894.05005208299	1119.291216881049	0
320	11894.05004851817	1119.29121792521	0
321	11944.69181427562	1112.35171068578	0
322	11944.69184437432	1112.351706451697	0
323	11945.65037066427	1112.061037271981	0
324	11944.69189009863	1112.351710607105	0
325	11945.65039968165	1112.061038479386	0
326	11945.65039968265	1112.061038479374	0
327	12253.17640010971	1104.108384119636	0
328	12253.1764076383	1104.108384379944	0
329	12254.17332941453	1104.206199028265	0
330	12253.17642380108	1104.108373072002	0
331	12254.17334345434	1104.206191122306	0
332	12254.17333811012	1104.206190702545	0
333	12368.64415382602	1118.508779652383	0
334	12368.64418230551	1118.5087976548	0
335	12369.64164150066	1118.605083896429	0
336	12368.64416078431	1118.508779415269	0
337	12369.64169010207	1118.605067333452	0
338	12369.64177363913	1118.60507476328	0
339	12473.76311885698	1113.858447965036	0
340	12473.76311159948	1113.858446324809	0
341	12474.76112996809	1113.785676481188	0
342	12473.76309486817	1113.858449172256	0
343	12474.7611718575	1113.785678487892	0
344	12474.76111952268	1113.78567744724	0
345	12774.17366399376	1115.141150090868	0
346	12774.17366796192	1115.141149271908	0
347	12775.17226028181	1115.215924265321	0
348	12774.17369258693	1115.141150036347	0
349	12775.17229252443	1115.215922340432	0
350	12775.1722988149	1115.215920442241	0
351	12977.50889050918	1115.004689635248	0
352	12977.50889116862	1115.004692325776	0
353	12978.48428950049	1114.775373873586	0
354	12977.50893231258	1115.004674268957	0
355	12978.48432432739	1114.775365907811	0
356	12978.48428913007	1114.77537248548	0
357	13008.17315535845	1109.92954279486	0
358	13008.17316341345	1109.929541479959	0
359	13009.17529240199	1109.927334195884	0
360	13008.17313597726	1109.929546924496	0
361	13009.17526779112	1109.927336242677	0
362	13009.17531373576	1109.927332935027	0
363	13075.09038829145	1104.146606102799	0
364	13075.09044436806	1104.146602687798	0
365	13076.08404888673	1104.012771212286	0
366	13075.09037416098	1104.14660696174	0
367	13076.08404752628	1104.012779048449	0
368	13076.08405487373	1104.012782161506	0
369	13083.10219710469	1103.817915965996	0
370	13083.10221248894	1103.817913664883	0
371	13084.10397707976	1103.859953821885	0
372	13083.10226092055	1103.817917351309	0
373	13084.10398659096	1103.859960942009	0
374	13084.10399529343	1103.859961850331	0
375	13199.81403328491	1115.938227998198	0
376	13199.81403848128	1115.938236401337	0
377	13200.81396452248	1116.011962812071	0
378	13199.81406171736	1115.938230869135	0
379	13200.81399049087	1116.011951522552	0
380	13200.81397559615	1116.011951209356	0
381	13515.31484737024	1103.90961268373	0
382	13515.31487494888	1103.909607919821	0
383	13516.31284251577	1103.827238454815	0
384	13515.31488405283	1103.90961258984	0
385	13516.31286935888	1103.827261684372	0
386	13516.31286935793	1103.827261684704	0
387	13580.15025451794	1110.007421200005	0
388	13580.15027106178	1110.007420984862	0
389	13581.1370623313	1110.177983397107	0
390	13580.15030265275	1110.007423389881	0
391	13581.13703606086	1110.177981028162	0
392	13581.13703406959	1110.177981145864	0
393	13732.15286368167	1119.164072147351	0
394	13732.15292857943	1119.164068888384	0
395	13733.13654805096	1119.355846458428	0
396	13732.15286884561	1119.164072827882	0
397	13733.13657516466	1119.355850614674	0
398	13733.13653964214	1119.355849347181	0
399	13737.12156892303	1119.787247966746	0
400	13737.12163942996	1119.787261474444	0
401	13738.11338504959	1119.927973761465	0
402	13737.12155499236	1119.787246380763	0
403	13738.11339496334	1119.927971411059	0
404	13738.11337176897	1119.927971035707	0
405	13750.10937850262	1120.803861472848	0
406	13750.10936353493	1120.803862553305	0
407	13751.11051966942	1120.763929420113	0
408	13750.10937053071	1120.803853173216	0
409	13751.11054224628	1120.763922982344	0
410	13751.11052745891	1120.763924620045	0
411	13844.89433103541	1111.360370829663	0
412	13844.8943959516	1111.360361959867	0
413	13845.88622650869	1111.219819363507	0
414	13844.89443536066	1111.360368584599	0
415	13845.88625603972	1111.21982603928	0
416	13845.8862486406	1111.219826863366	0
417	13953.12830496414	1110.778873182751	0
418	13953.12823462105	1110.77887937626	0
419	13954.12551291395	1110.678526932829	0
420	13953.12836743583	1110.778874728796	0
421	13954.12547915322	1110.678539462069	0
422	13954.12548555557	1110.678540027484	0
423	14019.00738553805	1116.710804557812	0
424	14019.00738286779	1116.71080605884	0
425	14020.00681311927	1116.772634816519	0
426	14019.00738774845	1116.710803860714	0
427	14020.00683585997	1116.772627395315	0
428	14020.00680354812	1116.772634070622	0
429	14168.10577845324	1107.927603877808	0
430	14168.105778454	1107.92760387715	0
431	14169.10594455594	1107.893195272118	0
432	14168.10578836089	1107.927609405966	0
433	14169.10599154264	1107.893199500039	0
434	14169.10604713144	1107.893204364212	0
435	14263.97498668962	1117.908222203014	0
436	14263.96943950777	1117.907764081882	0
437	14263.98185066775	1117.908804356057	0
438	14263.97499898514	1117.908221934305	0
439	14544.47442119171	1110.634507494059	0
440	14544.47438625285	1110.634508767258	0
441	14545.45228466653	1110.421549154172	0
442	14544.47444504387	1110.634508253511	0
443	14545.45228894451	1110.421547040479	0
444	14545.45228826243	1110.421549134368	0
445	14877.84536152991	1108.540340526509	0
446	14877.84536759566	1108.54033929916	0
447	14878.82020210473	1108.767751764422	0
448	14877.84535464213	1108.540330423114	0
449	14878.82021551069	1108.767750839583	0
450	14878.82021011659	1108.76775063183	0
451	14975.44167980513	1118.975441788884	0
452	14975.44166306666	1118.975443765231	0
453	14976.44256097269	1118.969077037598	0
454	14975.44167265135	1118.975441506142	0
455	14976.4425319794	1118.969073454435	0
456	14976.44252346245	1118.969072978358	0
457	15103.63473816589	1121.685139783797	0
458	15103.63474598095	1121.685143131068	0
459	15104.62459974684	1121.534672004984	0
460	15103.63475112319	1121.685139264843	0
461	15104.62461097409	1121.534673519676	0
462	15104.62465293619	1121.534671847233	0
463	15213.25213280945	1110.21361599939	0
464	15213.25213872428	1110.213620709464	0
465	15214.25311802384	1110.201197322594	0
466	15213.25213795692	1110.213615384893	0
467	15214.25314608711	1110.20118779021	0
468	15214.25310553429	1110.201196927696	0
469	15690.72979976083	1121.248333802719	0
470	15690.72981322243	1121.248335259131	0
471	15691.73001569181	1121.207033153092	0
472	15690.72981971092	1121.248333244799	0
473	15691.73005113361	1121.207029575627	0
474	15691.73002557761	1121.207033116244	0
475	15898.5824911409	1107.023039143828	0
476	15898.58250181841	1107.023029044172	0
477	15899.58062864334	1106.940934782217	0
478	15898.58248837973	1107.023039505679	0
479	15899.58043815769	1106.940900177035	0
480	15899.58064059083	1106.940938547722	0
481	15917.55043987749	1108.695364545523	0
482	15917.55044304879	1108.695364422246	0
483	15918.50628418964	1108.990542055735	0
484	15917.55059040794	1108.695395826194	0
485	15918.50654446269	1108.990559891271	0
486	15918.50654602821	1108.990557344621	0
487	15933.3806762741	1111.561039143686	0
488	15933.37894985864	1111.558262066803	0
489	15934.5304280235	1112.295941982573	0
490	15933.37975117361	1111.560447382634	0
491	15934.45718839399	1112.282346594358	0
492	15934.44501516225	1112.278902736846	0
493	15934.57057919346	1112.309814280532	0
494	15934.57196213186	1112.309625773462	0
495	15938.18977106561	1111.102152958807	0
