idx	X	Y	component
0	1000	5177.370526310564	0
1	1000.808702258525	5176.427177703586	0
2	1000.7979570878	5176.433660418426	0
3	1000.814827048654	5176.421078747128	0
4	1000.808528668713	5176.4272233549	0
5	1001.86757180297	5175.921927615866	0
6	1001.867874555144	5175.921686533664	0
7	1010.433416419333	5170.742639534958	0
8	1010.433162200135	5170.742789454791	0
9	1011.368459304364	5170.3264441937	0
10	1010.433261908261	5170.742638070617	0
11	1011.368766934983	5170.32615871599	0
12	1011.367700378903	5170.326705465758	0
13	1040.312642673081	5153.785770553208	0
14	1040.312378693835	5153.785937257579	0
15	1042.170857891466	5152.989760641291	0
16	1042.171036192769	5152.98958798219	0
17	1043.038661645912	5152.450547348851	0
18	1040.312611854933	5153.785819489218	0
19	1042.170353956366	5152.990403122953	0
20	1042.170719030291	5152.9898557632	0
21	1043.039104922747	5152.450433370319	0
22	1043.039104921815	5152.450433370681	0
23	1046.366569942384	5150.067280898883	0
24	1046.366013191351	5150.067598184471	0
25	1047.138751103575	5149.40648281197	0
26	1046.363392352192	5150.069525615719	0
27	1047.132926407417	5149.407761064701	0
28	1047.138538938137	5149.406615739784	0
29	1048.770662844606	5148.157434599985	0
30	1047.136493020996	5149.406999431807	0
31	1048.770017451697	5148.157686249648	0
32	1048.771121172811	5148.15715028421	0
33	1050.32578746286	5146.850904352872	0
34	1050.325693726482	5146.850962132979	0
35	1051.133125880152	5146.204016726186	0
36	1050.325786994521	5146.851199552842	0
37	1051.13365604212	5146.204139186497	0
38	1051.133589703145	5146.203857243014	0
39	1059.008317137507	5139.667268089397	0
40	1059.009313132735	5139.666836770932	0
41	1059.685907180687	5138.907112374929	0
42	1059.685303841349	5138.907473255592	0
43	1060.349051057448	5138.101996961987	0
44	1059.00936742355	5139.666581840301	0
45	1059.685989061336	5138.906573772398	0
46	1059.685930144218	5138.906727738736	0
47	1060.349026180956	5138.102161117792	0
48	1060.349172611245	5138.101889964362	0
49	1064.323138417928	5133.358019860652	0
50	1064.322903122956	5133.358088273641	0
51	1066.264581581058	5130.937613613074	0
52	1064.323178650604	5133.357965872335	0
53	1066.264925630513	5130.937375364023	0
54	1066.26493423781	5130.937365206204	0
55	1066.780215794613	5130.061390659378	0
56	1066.779437983708	5130.062075250411	0
57	1067.303239348773	5129.167154655444	0
58	1066.779001575617	5130.062440955284	0
59	1067.30211845715	5129.167981293129	0
60	1066.779702591502	5130.061899232546	0
61	1067.302546431356	5129.167955801226	0
62	1067.302463945565	5129.167785163208	0
63	1068.009952377533	5128.392070669497	0
64	1068.010252158242	5128.391900115513	0
65	1069.342577304459	5126.862380397599	0
66	1068.010344815462	5128.391802328695	0
67	1068.403939097885	5127.389988893849	0
68	1068.404571634945	5127.389700245507	0
69	1069.342015930126	5126.862830343555	0
70	1068.404148731984	5127.389851871957	0
71	1069.342939229959	5126.862053626767	0
72	1069.342109833793	5126.862822254974	0
73	1073.574432257399	5123.784060942023	0
74	1073.574896400281	5123.783759402728	0
75	1074.316749355755	5123.044302890151	0
76	1073.575186259514	5123.783654502477	0
77	1074.314872239449	5123.045266273761	0
78	1074.317421108279	5123.044046474355	0
79	1087.49839465943	5112.774379577546	0
80	1087.497616130308	5112.774800393351	0
81	1088.258709614613	5112.083999176419	0
82	1087.497627770219	5112.774815983241	0
83	1088.258173674632	5112.084700580974	0
84	1088.258189270744	5112.084614560482	0
85	1089.916481637275	5110.57181612518	0
86	1089.924823402724	5110.564959203011	0
87	1089.946221947169	5110.547572447895	0
88	1089.944261165191	5110.549286138787	0
89	1098.350142564854	5104.216937794549	0
90	1098.349978928784	5104.217242799365	0
91	1099.105902502073	5103.498162430438	0
92	1099.105873461398	5103.498328419199	0
93	1099.950406779439	5102.877350422534	0
94	1098.350695705813	5104.215549724617	0
95	1099.108778085485	5103.495877044486	0
96	1099.108868984144	5103.495984348412	0
97	1099.949722077957	5102.877836383809	0
98	1099.9498837665	5102.877718647716	0
99	1104.21742652976	5099.809081782259	0
100	1104.21734882441	5099.809151222391	0
101	1105.846638558798	5098.486368032751	0
102	1105.848041855626	5098.485552270773	0
103	1106.70085483595	5097.893361131721	0
104	1105.841895463062	5098.487063424673	0
105	1106.699757143703	5097.893487497282	0
106	1106.701680034068	5097.892823527023	0
107	1108.444522342846	5096.7637402996	0
108	1108.444266715821	5096.763922186576	0
109	1109.30720847688	5096.198556424385	0
110	1108.445376858487	5096.762904115278	0
111	1109.3181804237	5096.190532050894	0
112	1109.30632863435	5096.199053231529	0
113	1111.211686875111	5094.845413438272	0
114	1111.197047478344	5094.859208231019	0
115	1111.23293724633	5094.82681735923	0
116	1111.21488978196	5094.842757850176	0
117	1114.491642294702	5091.848661453836	0
118	1114.493242270689	5091.847513447243	0
119	1115.267128837042	5091.14227133645	0
120	1114.491642293879	5091.848661454404	0
121	1115.263929532283	5091.145225197025	0
122	1115.263379695935	5091.145622991624	0
123	1124.356930011708	5084.19367960549	0
124	1124.356533615643	5084.194249855478	0
125	1125.057590932951	5083.441530351078	0
126	1124.357028999445	5084.193561509378	0
127	1125.057033008468	5083.441293035477	0
128	1125.057944813539	5083.44130265218	0
129	1126.67429153128	5082.138420559471	0
130	1125.056807113223	5083.441685633268	0
131	1126.670116149785	5082.139470802709	0
132	1126.671753705073	5082.138902498873	0
133	1127.567842088745	5081.586858249126	0
134	1126.66956730191	5082.139609704069	0
135	1127.568260408279	5081.586399679805	0
136	1127.568266889555	5081.586412881637	0
137	1128.384998314458	5080.947507192169	0
138	1128.384278332912	5080.947924833494	0
139	1129.135905347369	5080.205258543736	0
140	1128.384400205552	5080.948010090168	0
141	1129.133366081759	5080.206040618219	0
142	1128.38396462798	5080.948146138145	0
143	1129.13068723845	5080.206638657593	0
144	1129.135861238083	5080.205394337709	0
145	1137.197249512274	5075.123838770851	0
146	1137.196728352445	5075.124129286705	0
147	1138.062495813941	5074.542812578866	0
148	1137.196139058639	5075.12413126136	0
149	1138.062024010563	5074.542967005731	0
150	1138.061989953806	5074.543145336896	0
151	1144.335698863796	5070.780649250737	0
152	1144.338194319891	5070.779864030336	0
153	1145.312378070619	5070.384905253221	0
154	1144.335029871523	5070.78099098603	0
155	1145.310516850077	5070.385522272822	0
156	1145.312534753078	5070.384838073009	0
157	1161.076663524592	5061.289092688231	0
158	1161.061145187292	5061.296957473827	0
159	1161.089807366156	5061.282044832687	0
160	1161.080382447968	5061.287195703722	0
161	1163.239631691694	5060.171644365024	0
162	1163.239631691466	5060.17164436405	0
163	1164.209494302628	5059.800655719095	0
164	1163.239070668975	5060.172295067952	0
165	1164.210983037888	5059.800186654651	0
166	1164.211406852424	5059.799898833522	0
167	1167.085471334647	5058.431081885541	0
168	1167.082409024975	5058.433497613423	0
169	1167.95340441673	5057.869581133815	0
170	1167.085490590752	5058.431065424027	0
171	1167.954302027813	5057.869052610663	0
172	1167.953541235351	5057.869502718248	0
173	1187.32142342664	5046.683394541382	0
174	1187.322363848836	5046.683080803726	0
175	1188.270137539602	5046.225373604229	0
176	1187.322382126982	5046.682978919677	0
177	1188.269690697362	5046.225606487278	0
178	1188.269045678228	5046.225923064998	0
179	1194.756640717945	5042.669594083753	0
180	1194.757319160201	5042.669196924084	0
181	1196.544753645988	5041.545750209698	0
182	1194.757205662961	5042.669216423235	0
183	1196.547759443468	5041.543899282948	0
184	1196.546781256644	5041.544440108783	0
185	1212.14425707807	5032.566475236988	0
186	1212.144000346972	5032.566654844115	0
187	1213.084773119007	5032.097963926172	0
188	1212.143532328754	5032.566670748301	0
189	1213.085774937438	5032.09704200842	0
190	1213.087279557269	5032.096472900783	0
191	1214.051595616403	5031.634831990024	0
192	1214.051595616254	5031.634831989036	0
193	1215.000446362523	5031.200378972175	0
194	1214.051994036982	5031.634474962194	0
195	1215.005032167385	5031.196818203703	0
196	1215.000933943134	5031.200095302712	0
197	1215.965863309582	5030.750377954787	0
198	1215.005569948289	5031.196639325854	0
199	1215.965784289787	5030.750179026822	0
200	1215.96917270443	5030.748830508679	0
201	1219.82318124351	5028.899057571256	0
202	1219.815797075012	5028.902852312079	0
203	1220.800996753472	5028.464257215959	0
204	1219.821154394243	5028.900166322837	0
205	1220.804175006364	5028.462760845034	0
206	1220.803299247834	5028.463197436259	0
207	1221.780090415344	5028.026745007146	0
208	1221.778771316339	5028.027405633909	0
209	1222.743232185627	5027.612291654688	0
210	1221.779241060851	5028.027240114776	0
211	1222.74289908009	5027.613778109358	0
212	1222.742688904894	5027.615406352009	0
213	1223.728183695789	5027.191105910626	0
214	1222.74407431345	5027.613243486246	0
215	1223.729444018972	5027.190389692616	0
216	1223.729561762329	5027.190424336057	0
217	1225.702413734992	5026.298522983544	0
218	1225.70225454433	5026.298593276836	0
219	1226.717549534752	5025.935078995445	0
220	1225.702621144691	5026.298110471884	0
221	1226.719359828434	5025.933996471485	0
222	1226.717549535598	5025.935078994911	0
223	1229.624053324832	5024.627249465913	0
224	1229.62284848793	5024.628072137966	0
225	1231.59372846411	5023.757721634187	0
226	1229.624010069797	5024.626749850882	0
227	1231.593893462171	5023.757018970213	0
228	1231.594903006891	5023.75703258373	0
229	1247.0426609858	5016.319112437748	0
230	1247.042143550808	5016.319377515623	0
231	1248.094297921746	5016.169969953771	0
232	1247.040126881264	5016.320402249929	0
233	1248.092844453036	5016.171506970228	0
234	1248.09516723187	5016.169431288612	0
235	1256.721615805995	5011.523896392346	0
236	1256.722575021583	5011.523409920713	0
237	1257.674214005298	5011.067017719223	0
238	1256.72354027984	5011.522685542772	0
239	1257.673895025685	5011.066929600463	0
240	1257.674114654915	5011.06710021238	0
241	1260.509711037582	5009.553525535557	0
242	1260.513199400574	5009.551689542678	0
243	1261.526471542312	5009.136355182026	0
244	1260.509353610772	5009.553279786815	0
245	1261.528864724789	5009.135015574079	0
246	1261.524525683997	5009.136934648767	0
247	1264.435658532693	5007.608157513479	0
248	1264.435483382074	5007.608460721643	0
249	1265.397296661443	5007.096933784203	0
250	1264.434921087368	5007.60854990251	0
251	1265.397202789952	5007.09644310464	0
252	1265.398219925127	5007.096005401962	0
253	1273.375719904848	5002.812109299075	0
254	1273.375503956404	5002.812194676471	0
255	1273.466931705703	5002.781446752668	0
256	1273.466489257511	5002.781665854411	0
257	1280.383133957171	4999.254615251613	0
258	1280.381708271391	4999.255554077303	0
259	1281.378559423867	4998.795617310303	0
260	1280.383278512399	4999.25442281106	0
261	1281.378410060671	4998.795394088407	0
262	1281.379078608477	4998.795319163993	0
263	1283.372357661402	4997.92456125715	0
264	1283.373641017829	4997.924016741086	0
265	1284.383653386349	4997.589996064211	0
266	1283.372183158038	4997.925032431165	0
267	1284.38582344956	4997.589747336639	0
268	1284.385754695723	4997.589735989135	0
269	1303.009301614408	4988.095912211102	0
270	1303.009289464148	4988.095972176894	0
271	1303.055397595728	4988.07380524309	0
272	1303.052361038816	4988.075289372933	0
273	1304.252422571833	4987.452233607088	0
274	1304.253752459066	4987.451606130973	0
275	1305.197585819126	4986.999006401002	0
276	1304.249097735403	4987.453615364864	0
277	1305.198856803104	4986.997736366241	0
278	1305.195468004831	4987.000048349469	0
279	1309.153952681435	4985.180584806155	0
280	1309.154230002185	4985.18057755572	0
281	1310.136421805969	4984.650598393406	0
282	1309.154294652079	4985.180608558399	0
283	1310.128293523102	4984.65253865136	0
284	1310.136429322592	4984.650589600959	0
285	1311.123381775998	4984.146971007975	0
286	1310.137348299342	4984.649802553775	0
287	1311.124040680133	4984.14655339418	0
288	1311.123381775004	4984.146971007881	0
289	1312.106978574656	4983.625040527081	0
290	1312.107787079214	4983.624670245967	0
291	1313.081475672428	4983.112953381366	0
292	1312.10818579131	4983.624430321182	0
293	1313.079580074034	4983.113587104115	0
294	1313.082371095851	4983.112519102702	0
295	1315.057928451972	4982.085724569533	0
296	1315.057044587689	4982.086408322053	0
297	1316.07441402488	4981.723981499899	0
298	1315.057040379283	4982.086001999765	0
299	1316.072081866098	4981.725210595423	0
300	1316.071928741297	4981.725282029215	0
301	1329.110021196837	4974.683518255519	0
302	1329.112622279437	4974.682370973015	0
303	1329.148638112759	4974.667001047344	0
304	1329.145765159789	4974.668322646243	0
305	1334.33824449377	4972.272422607869	0
306	1334.338564106205	4972.272340882415	0
307	1335.326820516307	4971.800047770081	0
308	1334.338244494692	4972.272422607484	0
309	1335.325914906877	4971.800592444903	0
310	1335.327573525749	4971.799676709014	0
311	1338.275604760388	4970.269058310507	0
312	1338.276603105503	4970.268614023217	0
313	1339.348705533934	4969.750048449233	0
314	1338.275727780777	4970.269079296189	0
315	1339.351391995962	4969.7492881489	0
316	1339.351312618563	4969.748487486198	0
317	1350.377248889711	4964.203242754415	0
318	1350.379982075295	4964.202240762823	0
319	1351.439394107181	4963.672230887251	0
320	1350.378356365756	4964.202923114059	0
321	1351.440705186627	4963.671440196604	0
322	1351.439414667162	4963.672074181844	0
323	1355.541102372222	4961.61952712552	0
324	1355.539894249433	4961.62012944372	0
325	1356.553908266163	4961.155460306917	0
326	1355.542795930387	4961.618039263425	0
327	1356.550526481757	4961.157087563182	0
328	1356.554059886745	4961.155419615072	0
329	1357.604078764361	4960.689067950044	0
330	1357.605549440784	4960.68806477656	0
331	1358.68691383338	4960.21575642314	0
332	1357.605439865498	4960.688050992374	0
333	1358.687719838526	4960.215042045282	0
334	1358.687719838132	4960.2150420462	0
335	1366.8240895689	4956.211687837277	0
336	1366.823586017223	4956.211940050456	0
337	1367.863570099676	4955.723867300979	0
338	1366.825240117095	4956.211119795697	0
339	1367.861632234467	4955.724699612787	0
340	1367.861903167588	4955.724395718572	0
341	1368.880104664742	4955.225359147525	0
342	1367.858643752892	4955.72625107063	0
343	1368.879197878089	4955.225779161534	0
344	1368.880497237307	4955.225102120205	0
345	1369.905067807333	4954.742177476552	0
346	1369.906721048877	4954.741348974037	0
347	1371.027812089246	4954.322373461378	0
348	1369.903243724416	4954.743269913391	0
349	1371.022750396444	4954.325914329748	0
350	1371.031463246871	4954.320211182054	0
351	1404.520938651223	4936.463497274503	0
352	1404.521587734101	4936.46272690415	0
353	1405.568636941338	4935.981463157012	0
354	1404.513285761906	4936.470857350481	0
355	1405.558823978486	4935.988795210404	0
356	1405.560616192183	4935.98717418948	0
357	1412.049551115025	4932.589503858413	0
358	1412.050041655536	4932.589622200743	0
359	1415.274236929253	4930.961735189121	0
360	1412.052581534461	4932.586861915809	0
361	1415.284892697327	4930.955650536554	0
362	1415.275614233373	4930.961017046599	0
363	1420.724503789807	4928.230979588091	0
364	1420.698332084501	4928.24975619606	0
365	1420.739272267944	4928.223342972462	0
366	1420.7423682372	4928.221769110655	0
367	1423.02755053286	4926.850174050965	0
368	1423.025507282713	4926.851319685218	0
369	1424.126110024022	4926.284929220625	0
370	1423.028035404099	4926.849787534618	0
371	1424.126168755789	4926.283605931257	0
372	1424.12474402653	4926.288076160787	0
373	1425.230682758053	4925.648636787977	0
374	1424.127016792597	4926.282979153078	0
375	1425.229603179978	4925.649365974074	0
376	1425.229071993219	4925.649535724619	0
377	1428.619305319961	4923.746658450758	0
378	1428.626863029086	4923.742845962552	0
379	1429.743548125474	4923.156854990149	0
380	1428.629125651234	4923.74109666919	0
381	1429.742872962402	4923.15653402254	0
382	1429.74414564828	4923.156367518308	0
383	1435.421060117565	4919.936596435118	0
384	1435.411498121871	4919.942014709334	0
385	1436.487690716063	4919.30614232323	0
386	1435.419453202283	4919.937120408281	0
387	1436.488639482955	4919.305558763014	0
388	1436.484747790694	4919.308033525327	0
389	1440.033213513464	4917.306559824798	0
390	1440.03241693407	4917.307235300351	0
391	1441.250762351986	4916.636877678762	0
392	1440.035006138553	4917.305132909238	0
393	1441.264108366613	4916.627468366039	0
394	1441.274895497995	4916.626510443518	0
395	1442.392950360606	4915.952315550115	0
396	1441.251460867909	4916.636464199986	0
397	1442.395658803793	4915.950346043646	0
398	1442.394315128206	4915.950830833362	0
399	1453.881654934162	4909.070861615577	0
400	1453.673612310685	4909.206846040737	0
401	1454.095554742948	4908.93055285882	0
402	1453.885284394318	4909.068500314203	0
403	1482.671634039693	4892.765566097727	0
404	1482.668117856006	4892.764927038529	0
405	1483.799055259561	4891.952531227445	0
406	1482.671912027555	4892.76646974184	0
407	1483.806940318045	4891.949605368992	0
408	1483.800675219327	4891.951605869594	0
409	1486.440062659445	4890.452749021681	0
410	1486.444648694152	4890.450911529418	0
411	1487.665684616754	4889.734501712253	0
412	1486.446026179051	4890.449561380517	0
413	1487.662026553466	4889.737015168481	0
414	1487.660795042572	4889.737695539869	0
415	1535.412469333321	4862.269992670198	0
416	1535.416860696325	4862.269121637159	0
417	1536.792743692109	4861.47536111981	0
418	1535.422877272335	4862.265505849458	0
419	1536.776930286724	4861.484930318446	0
420	1536.791184385816	4861.475219367089	0
421	1545.68236711666	4856.235901213116	0
422	1545.668139467617	4856.243618738446	0
423	1547.059309983921	4855.642794181127	0
424	1545.670636764915	4856.241710763497	0
425	1547.064959712769	4855.639872871521	0
426	1547.06086326938	4855.64136694127	0
427	1556.901229633402	4850.123827692965	0
428	1556.901968632832	4850.12217021941	0
429	1558.397127028878	4849.298006497197	0
430	1556.924134848696	4850.107589172019	0
431	1558.376603308686	4849.309142811331	0
432	1558.404721330909	4849.292591210906	0
433	1594.357099656037	4828.855410124999	0
434	1594.357099656819	4828.855410124377	0
435	1596.288878953722	4827.805827414419	0
436	1594.336312264372	4828.863803084756	0
437	1596.282090860449	4827.810719877377	0
438	1596.316367942286	4827.780724178626	0
439	1606.995254349718	4821.520418904013	0
440	1607.01321908006	4821.516826347579	0
441	1609.368165243605	4820.13574370221	0
442	1607.325922269126	4821.295038465154	0
443	1609.3553268481	4820.142079724026	0
444	1609.381778878739	4820.129150735316	0
445	1635.482860532516	4804.506945216592	0
446	1635.483046227997	4804.508465515601	0
447	1635.648836569647	4804.394443401489	0
448	1635.530500197919	4804.46459755962	0
449	1671.684850252015	4778.515659757324	0
450	1664.062003712667	4785.13525471432	0
451	1631.570469670777	4815.112238972073	0
452	1631.56812603424	4815.114362703584	0
453	1629.072795891716	4818.131511823893	0
454	1631.570469670431	4815.112238973012	0
455	1628.924012607145	4818.258437957528	0
456	1629.06557427864	4818.133882086909	0
457	1611.962403792651	4843.447115687338	0
458	1611.922310906451	4843.496741700504	0
459	1611.082750090836	4845.096328528947	0
460	1611.92635143539	4843.493926947257	0
461	1611.098296910862	4845.075312327325	0
462	1611.081618168919	4845.097356454446	0
463	1601.049672317834	4889.685670062199	0
464	1601.043928504596	4889.696061100301	0
465	1600.98926319086	4891.093015056109	0
466	1601.047021116964	4889.686676530803	0
467	1600.992338875694	4891.081353589697	0
468	1600.992847051291	4891.0816979237	0
469	1601.427050519799	4898.346021996976	0
470	1601.432105981541	4898.359855783319	0
471	1601.176200959862	4899.939194679768	0
472	1601.424091367068	4898.358229486189	0
473	1601.173673542297	4899.930569035469	0
474	1601.173936980036	4899.930788257931	0
475	1607.009973175111	4917.620817185665	0
476	1607.012307522594	4917.634629459897	0
477	1607.175287562673	4918.087374563022	0
478	1607.176124719257	4918.088966549513	0
479	1608.223967338567	4920.416772880944	0
480	1608.198347662548	4920.393162856823	0
481	1608.905589219652	4921.542732615852	0
482	1608.223655312543	4920.415908229614	0
483	1608.909012281108	4921.552228909638	0
484	1608.905672060027	4921.547356495332	0
485	1610.09000497238	4924.073891845268	0
486	1610.090645601134	4924.074305271398	0
487	1611.411069096919	4926.251528328396	0
488	1610.097784840164	4924.083389414485	0
489	1611.417925650635	4926.246982566165	0
490	1611.417172201533	4926.245863377784	0
491	1612.13593127586	4927.341161985593	0
492	1612.136396084268	4927.341380458913	0
493	1612.86094124367	4928.31925118046	0
494	1612.128307607339	4927.338359571695	0
495	1612.828126680488	4928.349741813245	0
496	1612.860941244165	4928.319251179591	0
497	1641.543316110885	4949.529388315639	0
498	1641.543086431025	4949.529620868061	0
499	1642.471059653019	4950.340009893151	0
500	1641.542126473872	4949.530421696847	0
501	1642.472122603027	4950.350952489707	0
502	1642.473525189789	4950.349940509181	0
503	1646.636559176837	4952.369418419369	0
504	1646.636232032508	4952.371365560231	0
505	1648.690462111226	4953.319351819357	0
506	1646.607097991537	4952.388316686943	0
507	1648.684986090005	4953.324200538827	0
508	1648.690723263985	4953.318988765886	0
509	1650.577682572241	4954.685346569754	0
510	1650.584252272206	4954.675734102964	0
511	1651.660529722803	4954.957221044319	0
512	1650.576000919799	4954.685221756062	0
513	1651.656131179755	4954.956618841309	0
514	1651.657981697669	4954.957806338536	0
515	1653.860300940099	4955.568943230535	0
516	1653.859701476279	4955.568899967576	0
517	1654.876723124836	4955.966091190638	0
518	1653.861175420012	4955.569531178535	0
519	1654.873483461272	4955.968721493264	0
520	1654.876564561449	4955.966214626371	0
521	1662.503073811671	4957.803264749253	0
522	1662.503942494395	4957.803749398296	0
523	1663.638042062345	4958.025997169256	0
524	1662.501032809406	4957.807069673117	0
525	1663.62497163336	4958.035007733462	0
526	1663.623916791019	4958.035007343271	0
527	1666.805239215569	4959.143307525715	0
528	1666.8078434155	4959.140648665877	0
529	1667.833826295106	4959.561586327633	0
530	1666.798879379741	4959.148524848062	0
531	1667.828953012108	4959.566314208376	0
532	1667.835570552414	4959.562310286668	0
533	1691.620207258288	4961.302389628977	0
534	1691.622155144724	4961.301431609098	0
535	1692.708660080682	4961.354471043201	0
536	1691.610894630258	4961.334742019499	0
537	1692.696548085382	4961.363355183843	0
538	1692.696695535526	4961.363333539403	0
539	1706.333215866668	4960.910192367073	0
540	1706.337126338026	4960.910408685854	0
541	1707.377069587395	4960.992276897217	0
542	1706.33098719405	4960.92196931978	0
543	1707.374494690497	4960.997133788998	0
544	1707.377733159577	4960.992351504765	0
545	1719.522491878473	4958.479418900888	0
546	1719.524811452656	4958.479223054151	0
547	1720.595394767682	4958.742438630646	0
548	1719.518795172029	4958.486070761838	0
549	1720.594078215358	4958.744558718166	0
550	1720.59600454904	4958.742336934157	0
551	1726.069163174472	4957.397434093913	0
552	1726.068534101693	4957.39747807414	0
553	1728.289838777805	4957.609436939684	0
554	1726.065977158497	4957.399605668304	0
555	1728.273952452235	4957.62554483197	0
556	1728.275514419768	4957.624259533125	0
557	1736.943356471187	4955.650834461994	0
558	1736.945065637247	4955.648872267684	0
559	1738.030334233989	4955.658811678565	0
560	1736.940081953193	4955.650826211504	0
561	1738.026142900454	4955.669923672098	0
562	1738.030283074352	4955.659023601273	0
563	1745.525320853915	4953.419930091562	0
564	1745.52699642351	4953.418502071907	0
565	1747.731365205584	4953.170250491368	0
566	1745.515374355708	4953.435529974377	0
567	1747.730910161072	4953.173678111531	0
568	1747.730935208873	4953.173672924389	0
569	1755.31764289689	4950.340718177982	0
570	1755.316628547676	4950.341157951983	0
571	1756.336377423449	4949.989706192345	0
572	1755.314400879249	4950.343548930495	0
573	1756.331519713512	4949.996869667675	0
574	1756.336694131595	4949.989588954745	0
575	1771.430927576254	4942.107081295278	0
576	1771.434646113624	4942.103115782371	0
577	1772.47283277587	4941.82214255281	0
578	1771.41672510306	4942.125820881749	0
579	1772.467609250377	4941.828776789221	0
580	1772.467611159013	4941.828775591479	0
581	1778.639961006735	4938.80298381843	0
582	1778.641017642643	4938.801869829502	0
583	1780.892518816541	4938.357988874222	0
584	1778.63809402906	4938.808381029368	0
585	1780.873966686882	4938.392721275482	0
586	1780.875449360624	4938.391704208481	0
587	1791.209012331416	4932.65316514072	0
588	1791.212599524929	4932.648987541445	0
589	1792.300105698419	4932.402672553157	0
590	1791.211031094646	4932.650135329626	0
591	1792.294468620895	4932.40712070049	0
592	1792.297113477598	4932.406662931579	0
593	1805.524957938108	4923.441029635995	0
594	1805.527184357881	4923.438781978126	0
595	1806.507298980842	4923.346267716106	0
596	1805.524351106127	4923.444303467153	0
597	1806.480824514146	4923.376533306338	0
598	1806.489083070457	4923.369926097708	0
599	1830.272650508647	4907.631621365899	0
600	1830.273179352423	4907.631068510434	0
601	1830.329019926468	4907.595501970944	0
602	1830.325503549397	4907.597171885526	0
603	1832.967696986297	4906.574849657019	0
604	1832.841534958389	4906.66331471387	0
605	1833.128399151495	4906.482537003852	0
606	1832.99547872611	4906.559377746039	0
607	1852.069735199022	4888.985901800523	0
608	1852.072693345881	4888.983719435996	0
609	1852.735946444642	4888.134615319731	0
610	1852.10906006627	4888.987357355106	0
611	1852.737498272338	4888.133845297934	0
612	1852.73594644547	4888.134615319172	0
613	1858.103346250677	4882.936579505051	0
614	1858.103073237798	4882.93626859926	0
615	1859.27969281799	4880.975232478411	0
616	1858.113583294828	4882.942084796123	0
617	1859.285267203582	4880.974771015995	0
618	1859.278558583977	4880.97681092214	0
619	1862.958206958605	4876.28911403211	0
620	1862.956808443998	4876.290402160802	0
621	1863.683354327663	4875.40214057844	0
622	1862.964757245964	4876.298389017234	0
623	1863.691409103441	4875.406783563416	0
624	1863.692165384413	4875.404510387812	0
625	1865.132834117387	4873.660963220631	0
626	1865.132374659587	4873.664461015534	0
627	1865.772552959997	4872.651866172186	0
628	1865.140329967868	4873.679327484448	0
629	1865.774809983851	4872.657670338504	0
630	1865.772491443681	4872.651277897076	0
631	1874.337670877636	4858.669045600074	0
632	1874.336910715836	4858.667447240384	0
633	1875.697099360204	4856.792223528178	0
634	1874.338555200739	4858.667119766964	0
635	1875.698776519572	4856.801518317576	0
636	1875.698075452106	4856.800202036083	0
637	1877.541255197932	4853.689219437001	0
638	1877.541114317336	4853.689380713039	0
639	1878.253489621105	4852.872969128163	0
640	1877.541528436822	4853.694937457871	0
641	1878.255735237641	4852.881531466144	0
642	1878.256097524364	4852.870028012567	0
643	1887.629197038994	4832.37614188887	0
644	1887.625452071431	4832.362450003327	0
645	1888.175211603488	4831.347120214175	0
646	1887.629437645756	4832.375698409617	0
647	1888.176221706891	4831.355541183317	0
648	1888.174787451473	4831.347546261836	0
649	1888.684176603578	4830.124809584298	0
650	1888.681731992161	4830.121934506731	0
651	1889.06659272566	4828.975123873002	0
652	1888.684852826222	4830.130633454924	0
653	1889.066956538504	4828.981839210614	0
654	1889.066943935287	4828.983504849302	0
655	1890.974622650783	4814.069459841842	0
656	1890.973877040758	4814.065841052189	0
657	1891.864220861706	4811.577380238833	0
658	1890.980184721633	4814.079305586014	0
659	1891.864419387181	4811.585359448753	0
660	1891.863880253018	4811.578176798573	0
661	1892.257704129884	4808.971696707677	0
662	1892.257567286165	4808.959236527867	0
663	1892.336553107045	4807.634454998667	0
664	1892.258857177285	4808.969840903972	0
665	1892.345240327099	4807.661236214657	0
666	1892.336766810236	4807.632779371542	0
667	1892.818976804208	4783.617026826926	0
668	1892.820039345355	4783.617266169887	0
669	1893.079115539693	4782.465042060467	0
670	1892.821166601746	4783.622183602727	0
671	1893.080681838805	4782.484984028781	0
672	1893.079274832537	4782.466343075808	0
673	1887.780305780571	4739.694349733122	0
674	1887.778552756777	4739.681472537746	0
675	1887.111454654954	4736.785004180934	0
676	1887.779854101424	4739.692359203909	0
677	1887.110959887697	4736.805550036817	0
678	1887.111635238816	4736.786681663595	0
679	1886.404990751725	4733.412060781654	0
680	1886.405009478146	4733.411702209123	0
681	1885.93189122495	4731.739440437585	0
682	1886.404303583101	4733.403899993764	0
683	1885.928877751097	4731.72484127635	0
684	1885.928631158357	4731.72329119692	0
685	1885.635688806549	4729.981625499425	0
686	1885.636159822562	4729.997227953767	0
687	1885.060331899754	4727.926969849269	0
688	1885.635856805734	4729.980728943625	0
689	1885.05161120411	4727.839474023056	0
690	1885.058493292237	4727.924169123409	0
691	1884.725021394485	4723.739410521355	0
692	1884.748520809491	4723.815406574404	0
693	1947.102164690316	4644.027843706835	0
694	1947.916292757912	4643.860599730765	0
695	1946.674705347067	4644.133079841795	0
696	1946.670875330246	4644.136416910773	0
697	1884.679957755708	4723.075181214735	0
698	1884.679931959504	4723.074868463416	0
699	1882.763357849255	4716.872497099551	0
700	1882.77650736788	4716.886679311654	0
701	1882.004838028121	4715.196650172962	0
702	1882.801298033856	4716.745525209441	0
703	1882.007263004736	4715.122737443152	0
704	1881.998748609862	4715.125050290813	0
705	1872.340590712992	4702.315881535082	0
706	1872.334203349656	4702.306808038264	0
707	1871.404848520793	4701.613496104943	0
708	1872.30677100553	4702.318934853633	0
709	1871.364023493016	4701.709928072048	0
710	1871.357443132488	4701.700896635403	0
711	1858.424530527604	4693.80265797983	0
712	1858.427909351794	4693.727270151054	0
713	1856.272499148256	4693.6088594483	0
714	1858.388973512319	4693.79844500428	0
715	1856.301092935299	4693.619735173249	0
716	1856.276636376867	4693.615501719077	0
717	1847.478737592184	4693.574354729739	0
718	1847.478737592473	4693.574354728782	0
719	1847.000836043405	4692.755434747072	0
720	1847.471919498779	4693.589168695774	0
721	1846.909870053745	4692.857351975652	0
722	1847.014949481922	4692.748656415732	0
723	1676.168672094423	4774.751984604836	0
724	1676.168672093656	4774.751984605479	0
725	1780.437147339892	4675.465992815707	0
726	1780.436380001801	4675.466665580922	0
727	1672.556299001881	4751.959611380316	0
728	1672.619741125377	4751.873829936802	0
729	1668.8583943842	4752.363824212625	0
730	1672.561194016087	4751.956360277465	0
731	1668.95333964146	4752.355883129263	0
732	1668.845943050806	4752.413305030686	0
733	1651.456223694327	4756.106728180607	0
734	1651.417130933343	4756.134626882146	0
735	1627.49389821056	4800.229566061942	0
736	1627.731114017452	4799.828468708516	0
737	1627.045494782108	4800.970909824134	0
738	1627.493301418586	4800.228868687124	0
739	1648.763714721573	4755.926515927091	0
740	1648.767461660751	4755.922453567103	0
741	1614.139019805016	4747.005079317681	0
742	1614.248219205695	4747.048268534574	0
743	1614.099756085954	4746.981812562926	0
744	1614.099308341701	4746.981932697737	0
745	1606.826672876048	4744.573988129208	0
746	1606.841122527861	4744.577962517374	0
747	1606.023203214947	4743.67940778017	0
748	1606.827994779454	4744.573809285397	0
749	1606.018831679107	4743.668052133262	0
750	1606.017592335758	4743.667629585585	0
751	1594.427524518614	4734.332167948485	0
752	1594.421896123025	4734.340395169285	0
753	1593.90581907573	4733.327806208744	0
754	1594.430011803456	4734.332341050279	0
755	1593.906770809424	4733.323087185247	0
756	1593.905026797387	4733.325980364238	0
757	1592.699013437725	4731.24001130661	0
758	1592.699681772205	4731.244354312541	0
759	1592.03777772483	4730.292022263189	0
760	1592.699013438063	4731.240011305668	0
761	1592.045551784116	4730.277723612332	0
762	1592.041397517465	4730.275686468847	0
763	1591.151882824563	4723.133785698229	0
764	1591.142727768736	4723.14113632272	0
765	1590.734547572216	4722.195214650045	0
766	1591.151259743731	4723.13310131504	0
767	1590.82932383187	4722.032704266813	0
768	1590.734551793324	4722.19762039693	0
769	1592.239194144963	4716.281578169443	0
770	1592.194416548547	4716.32615640646	0
771	1592.576885576869	4713.982248640414	0
772	1592.233500481049	4716.275822876718	0
773	1592.582076968166	4713.956545720017	0
774	1592.583619410523	4713.9634942269	0
775	1600.55872702987	4695.733438280928	0
776	1600.559095605775	4695.732679420881	0
777	1600.641273341043	4694.603265656939	0
778	1600.566708766937	4695.727942356889	0
779	1600.643710005575	4694.598898076732	0
780	1600.643463301889	4694.599850056993	0
781	1601.661876034903	4692.546677373111	0
782	1601.658763522149	4692.549260003079	0
783	1603.256468331398	4690.786362395724	0
784	1601.662450995271	4692.545234564963	0
785	1603.275355608208	4690.757536514747	0
786	1603.276102485954	4690.758482600271	0
787	1626.100315519981	4664.084684284253	0
788	1626.064081087231	4664.074481430896	0
789	1626.526229365348	4663.374385301114	0
790	1626.097742552137	4664.085467853422	0
791	1626.542822801735	4663.364011548272	0
792	1626.542433001398	4663.364312417985	0
793	1632.249762380616	4658.786592807606	0
794	1632.248681510849	4658.787772285345	0
795	1633.19050443483	4658.140606788272	0
796	1632.255828220115	4658.781291094276	0
797	1633.202159023314	4658.132215714297	0
798	1633.191691812737	4658.140309513323	0
799	1648.40191308718	4647.215517271275	0
800	1648.389860764846	4647.232345615545	0
801	1650.395312554451	4646.28605728792	0
802	1648.404485010917	4647.213620522984	0
803	1650.395772457317	4646.283576756159	0
804	1650.399528492922	4646.28042209243	0
805	1651.423614320184	4645.817173336658	0
806	1651.419071159156	4645.820359295803	0
807	1652.363508768751	4645.232664616131	0
808	1651.423520900994	4645.818001751462	0
809	1652.395598910348	4645.213862719194	0
810	1652.364600078542	4645.2321377779	0
811	1694.186906911382	4621.814247628947	0
812	1694.182752421196	4621.820209559321	0
813	1695.135603763892	4621.282140025241	0
814	1694.185468387229	4621.814186278217	0
815	1695.149620384286	4621.258062362847	0
816	1695.147137339241	4621.259586360724	0
817	1698.43129780563	4619.703485381073	0
818	1698.420400068061	4619.70692179942	0
819	1699.423243300127	4619.098317234217	0
820	1698.431297804645	4619.703485381248	0
821	1699.427905282348	4619.097180393505	0
822	1699.429743063868	4619.098092958035	0
823	1701.130327955198	4618.942169863836	0
824	1701.12931193166	4618.942164033537	0
825	1701.314884218864	4618.916790277427	0
826	1701.192770379696	4618.934498982874	0
827	1738.778025161634	4603.815582508734	0
828	1738.764678214366	4603.821786755603	0
829	1739.88076101144	4603.434819704564	0
830	1738.777586792725	4603.815772215374	0
831	1739.88488757044	4603.422995976021	0
832	1739.886069872874	4603.422628268927	0
833	1761.483858933208	4597.24985677058	0
834	1761.433228016592	4597.255094286693	0
835	1761.569179501584	4597.227383144401	0
836	1761.483826521358	4597.249988633613	0
837	1775.366258925784	4594.385038432135	0
838	1775.366393091942	4594.385209408048	0
839	1776.389485345321	4594.362796797684	0
840	1775.37446070912	4594.379772352316	0
841	1776.406725994784	4594.356238469194	0
842	1776.409940848785	4594.35563451553	0
843	1780.92475774157	4593.802108656879	0
844	1780.9249811394	4593.802498183355	0
845	1783.169017210388	4594.193524622686	0
846	1780.924694443544	4593.802133428205	0
847	1783.16656849762	4594.191349538266	0
848	1783.169656906313	4594.194512657623	0
849	1787.817097290929	4594.674622222727	0
850	1787.810238723535	4594.680397237375	0
851	1788.891162585487	4595.058796258132	0
852	1787.817544638418	4594.675487764316	0
853	1788.890157619424	4595.059860514036	0
854	1788.890358713014	4595.059984970895	0
855	1821.860545272983	4611.326633156501	0
856	1821.857891442627	4611.330653123485	0
857	1822.59221446211	4612.252443276287	0
858	1821.861401842656	4611.326361200265	0
859	1822.594585268509	4612.251741389476	0
860	1822.594355614952	4612.25190111045	0
861	1823.215563520049	4614.781783506702	0
862	1823.216198113862	4614.771709088601	0
863	1823.428423685413	4616.060468298106	0
864	1823.221053340721	4614.767169997487	0
865	1823.430143904703	4616.06496757237	0
866	1823.429322800032	4616.070602230798	0
867	1823.289281628478	4617.720693709097	0
868	1823.289642003264	4617.725906061132	0
869	1823.342483413401	4619.230031899689	0
870	1823.292510958309	4617.719336073818	0
871	1823.332767439114	4619.225169252288	0
872	1823.342399210861	4619.238887469211	0
873	1821.885265370347	4625.622237177033	0
874	1821.883628040106	4625.626526863555	0
875	1820.401475695408	4629.425397820987	0
876	1821.884321097169	4625.63319022478	0
877	1820.349896112016	4629.487030206924	0
878	1820.398567615716	4629.430786038232	0
879	1815.665430292301	4637.880895051514	0
880	1815.665430291512	4637.880895052128	0
881	1814.854349870468	4639.908655893352	0
882	1815.665499969913	4637.885129449607	0
883	1814.832662569319	4639.917506562117	0
884	1814.80212959953	4639.943741186099	0
885	1781.222646595867	4674.817074634449	0
886	1780.896312753834	4675.09720971688	0
887	1795.498123290529	4663.633096931235	0
888	1795.313019380714	4663.774229289465	0
889	1799.479519453952	4660.484842356061	0
890	1795.589899654157	4663.548711918873	0
891	1800.290852100405	4659.723903800017	0
892	1799.459206326918	4660.507912641988	0
893	1808.148091743878	4653.391713492262	0
894	1800.302257750426	4659.711256174729	0
895	1808.062458289805	4653.454364530469	0
896	1808.17161643135	4653.368424623786	0
897	1811.118014107123	4651.033306214362	0
898	1808.263169074524	4653.290109562662	0
899	1811.136338290848	4651.01779739226	0
900	1811.113562180522	4651.038788279707	0
901	1836.950506466123	4629.845254137437	0
902	1836.952115699632	4629.845850570976	0
903	1839.193462849688	4627.826465871887	0
904	1836.973947383759	4629.827356698048	0
905	1839.173274396419	4627.842832717299	0
906	1839.188092389698	4627.829008290535	0
907	1855.714262018366	4613.712209787644	0
908	1855.716896834188	4613.709958778919	0
909	1857.233872420021	4612.352868978572	0
910	1855.71723865179	4613.709732317639	0
911	1857.221547291573	4612.367433135555	0
912	1857.222493907312	4612.363308459047	0
913	1878.732506468366	4592.986154077612	0
914	1878.74242017617	4592.978081596517	0
915	1879.876707275098	4591.849931409802	0
916	1878.73995015962	4592.97877040236	0
917	1879.867451169576	4591.856486083782	0
918	1879.874469066818	4591.850486868283	0
919	1909.968427086537	4564.154195824469	0
920	1909.964257209383	4564.158300208678	0
921	1911.290570244695	4562.950466319505	0
922	1909.967444020796	4564.152223178889	0
923	1911.291561624444	4562.945995957142	0
924	1911.290570244619	4562.950466318508	0
925	1913.764817913489	4560.602858689504	0
926	1913.758491613399	4560.608513817268	0
927	1914.922919332044	4559.557597550647	0
928	1913.7613519388	4560.605692700302	0
929	1914.917928549688	4559.564059297775	0
930	1914.919629477386	4559.562997344595	0
931	1924.403867189747	4550.850960738615	0
932	1924.402715818393	4550.851834716865	0
933	1924.77388742713	4550.504344749916	0
934	1924.772633114381	4550.50633500529	0
935	1928.150691729928	4547.434088381861	0
936	1928.158708523286	4547.428836181913	0
937	1929.238490980214	4546.370397060513	0
938	1928.154886808773	4547.430267749383	0
939	1929.224039854776	4546.381914426884	0
940	1929.238268349309	4546.370452916536	0
941	1933.534547642073	4542.377097081675	0
942	1933.530270593662	4542.380690515558	0
943	1935.599511540518	4540.402862604673	0
944	1933.528014840773	4542.380189523421	0
945	1935.598228720948	4540.402453146844	0
946	1935.602011468516	4540.400365020577	0
947	1942.998018473698	4533.523146170404	0
948	1943.002419154659	4533.519257568043	0
949	1943.961956602016	4532.623958504208	0
950	1943.001073030027	4533.523441143586	0
951	1944.074288485473	4532.57160172334	0
952	1944.071420781251	4532.575210048131	0
953	1944.970492875711	4531.713539990386	0
954	1944.064916697151	4532.577613213502	0
955	1944.949482700006	4531.724395782081	0
956	1944.925029436983	4531.737918208384	0
957	1945.961852617997	4530.796814076464	0
958	1944.947969188078	4531.725790732524	0
959	1945.97363269891	4530.78836786953	0
960	1945.974918910863	4530.784773408733	0
961	1947.929009933249	4528.921148931546	0
962	1947.92939220205	4528.921194171363	0
963	1948.929769647725	4528.049701553058	0
964	1947.932286584906	4528.920698328198	0
965	1948.937966543083	4528.045677705597	0
966	1948.943272105393	4528.040230268652	0
967	1949.919318279576	4527.135884193587	0
968	1948.953894261635	4528.029546914745	0
969	1949.926194060542	4527.128577731771	0
970	1949.926744404922	4527.129271351941	0
971	1963.332362884853	4514.966889611987	0
972	1963.342475709766	4514.957596094118	0
973	1964.271179424661	4514.06654130483	0
974	1963.341312057078	4514.957380501308	0
975	1964.273654139642	4514.063298047789	0
976	1964.272948424256	4514.063573847387	0
977	1976.478864872769	4503.58507135621	0
978	1976.484965086673	4503.580695306181	0
979	1977.385981719699	4502.698452802663	0
980	1976.481747494785	4503.583599935471	0
981	1977.386554397051	4502.69758632926	0
982	1977.38494701443	4502.70006785999	0
983	1981.999577037455	4498.687409691729	0
984	1981.998090853431	4498.685869814009	0
985	1982.852616197305	4497.824387147904	0
986	1981.999149148597	4498.687660260362	0
987	1982.856673357071	4497.825169423495	0
988	1982.857078330147	4497.824802038489	0
989	1996.123088403987	4486.44214005801	0
990	1996.124714507098	4486.44268437115	0
991	1997.078526439143	4485.529197898949	0
992	1996.123198727005	4486.442087217783	0
993	1997.076646027465	4485.528287858853	0
994	1997.080266102766	4485.526874587998	0
995	2000.753070845897	4482.402919438026	0
996	2000.749571499778	4482.406001031391	0
997	2001.702604982334	4481.588963286779	0
998	2000.752943146147	4482.403020855831	0
999	2001.702504148199	4481.588404914174	0
1000	2001.702767331508	4481.588854797675	0
1001	2007.334857852137	4476.856927613493	0
1002	2007.336713253059	4476.855320206841	0
1003	2008.268282949912	4476.066330150838	0
1004	2008.270334159228	4476.064851280164	0
1005	2009.135402466988	4475.302543620434	0
1006	2007.337537643426	4476.85400979001	0
1007	2008.274353368808	4476.057794018512	0
1008	2008.273914479941	4476.057810250793	0
1009	2009.134938425914	4475.302048397298	0
1010	2009.136104399643	4475.300968157871	0
1011	2011.827751999253	4472.827690977218	0
1012	2011.829071646388	4472.826801186191	0
1013	2012.660162064421	4471.980558594214	0
1014	2011.83013757536	4472.824991509192	0
1015	2012.660515482393	4471.979418451641	0
1016	2012.660359656397	4471.979530547841	0
1017	2024.085277240599	4461.583259343895	0
1018	2024.085599866666	4461.581838813916	0
1019	2024.880786695265	4460.790119946688	0
1020	2024.084942963897	4461.583285818067	0
1021	2024.881168570757	4460.788902975146	0
1022	2024.880188194285	4460.789990590149	0
1023	2031.89728496008	4454.472211749186	0
1024	2031.896417183667	4454.473425126339	0
1025	2032.727914492093	4453.695939696529	0
1026	2031.897284960683	4454.472211748389	0
1027	2032.72963814994	4453.694217388078	0
1028	2032.730163808716	4453.69453435608	0
1029	2033.637227519735	4452.921002413412	0
1030	2033.636796235322	4452.921394382033	0
1031	2034.538476798178	4452.204875387718	0
1032	2033.636834389603	4452.920835599265	0
1033	2034.539208204067	4452.20498790678	0
1034	2034.538244724835	4452.205831657634	0
1035	2050.084208658216	4438.203664856914	0
1036	2050.084445731791	4438.204073651034	0
1037	2051.100445980234	4437.474421922965	0
1038	2050.077289769079	4438.202252517533	0
1039	2051.097113644871	4437.473505372713	0
1040	2051.099421707716	4437.475001146403	0
1041	2062.599403073195	4427.85893708808	0
1042	2062.602245805052	4427.857642435029	0
1043	2063.449543635284	4427.151629652414	0
1044	2062.598778653388	4427.859303449351	0
1045	2063.441096559308	4427.153364589341	0
1046	2062.603886130377	4427.855235562735	0
1047	2063.455626635887	4427.145853851783	0
1048	2063.45263103564	4427.148070978441	0
1049	2064.413790688828	4426.575517766226	0
1050	2063.456059801395	4427.145285548938	0
1051	2064.415418626517	4426.573522203836	0
1052	2064.415152198711	4426.574661065065	0
1053	2065.370406805246	4425.968845132405	0
1054	2065.367663701423	4425.971281692987	0
1055	2066.386376618348	4425.393016817336	0
1056	2065.370193966863	4425.967975817155	0
1057	2066.387720321254	4425.391110146422	0
1058	2066.385355805684	4425.394071483899	0
1059	2092.281836321563	4404.946222976576	0
1060	2092.278450889058	4404.946121680923	0
1061	2094.135355695939	4403.644406333269	0
1062	2092.282106266334	4404.945862104837	0
1063	2094.132556408334	4403.649928053274	0
1064	2094.134998676282	4403.648333710735	0
1065	2098.721248442838	4400.423610677419	0
1066	2098.720690760321	4400.423987036689	0
1067	2099.526842019788	4399.6319881034	0
1068	2098.721310302219	4400.424429352252	0
1069	2099.508774228437	4399.637502876211	0
1070	2099.508594171918	4399.637600566804	0
1071	2100.353266750893	4398.977489899541	0
1072	2099.519038932887	4399.637733304896	0
1073	2100.391203395722	4398.979285887523	0
1074	2100.358558340573	4398.97400858179	0
1075	2104.755159883674	4395.437256842419	0
1076	2104.749115867182	4395.437033708533	0
1077	2105.500450905998	4394.676274516285	0
1078	2104.757527161539	4395.435543734066	0
1079	2105.506097821736	4394.674796235957	0
1080	2105.504187658782	4394.675838119045	0
1081	2117.431049078079	4386.710668071537	0
1082	2117.429625091915	4386.712073742625	0
1083	2118.315217961883	4385.996532633922	0
1084	2117.431711919717	4386.710469238516	0
1085	2118.314211440848	4385.996615188277	0
1086	2118.314425381372	4385.996470271504	0
1087	2124.61057586367	4381.497897505523	0
1088	2124.60887215135	4381.499248108974	0
1089	2125.466349790297	4380.782711871609	0
1090	2124.609654588177	4381.496488527167	0
1091	2125.460739290709	4380.784219103733	0
1092	2124.612870933992	4381.495825409423	0
1093	2125.474072721898	4380.777029176602	0
1094	2125.467627841642	4380.78153737152	0
1095	2126.426716000914	4380.156538800518	0
1096	2125.478611760036	4380.773495332845	0
1097	2126.426089035853	4380.155640980008	0
1098	2126.426765549344	4380.156525962906	0
1099	2131.318881574362	4376.963950327452	0
1100	2131.318712546148	4376.96408270288	0
1101	2131.339835780435	4376.946950421319	0
1102	2131.328207488941	4376.955874559689	0
1103	2138.610786554249	4371.61033283356	0
1104	2138.621857343051	4371.603407092022	0
1105	2139.561116739448	4371.011613559635	0
1106	2138.611376995874	4371.609999470844	0
1107	2139.561302872991	4371.011237905937	0
1108	2139.561739507825	4371.01085411125	0
1109	2142.109953877003	4368.969140147599	0
1110	2142.103332014792	4368.972169619792	0
1111	2142.970158526316	4368.308643599401	0
1112	2142.1099382555	4368.96935198599	0
1113	2142.985141362396	4368.305956156974	0
1114	2142.984537009344	4368.306236222649	0
1115	2143.906818683573	4367.688807840453	0
1116	2143.003228559207	4368.301933467552	0
1117	2143.906621462043	4367.689739734238	0
1118	2143.907259466206	4367.68848136661	0
1119	2146.48830580295	4365.720428905559	0
1120	2146.482591236526	4365.723813257352	0
1121	2147.374617433321	4365.006366368209	0
1122	2146.488300034028	4365.720448631736	0
1123	2147.37602024513	4365.005420254663	0
1124	2147.375470513013	4365.005658217813	0
1125	2152.662134437135	4360.941067803353	0
1126	2152.662058131432	4360.941124517515	0
1127	2153.530929889112	4360.275469832867	0
1128	2152.668973209149	4360.935756132068	0
1129	2153.532618178274	4360.274402607737	0
1130	2153.535091520815	4360.272920985793	0
1131	2156.130795433291	4358.196135988139	0
1132	2156.131683716886	4358.195483234137	0
1133	2156.963180380913	4357.464626503469	0
1134	2156.130775879556	4358.196274954687	0
1135	2156.965422828259	4357.463827189733	0
1136	2156.965804429085	4357.463518788269	0
1137	2158.629412092834	4356.117616753872	0
1138	2158.629433687916	4356.11753825346	0
1139	2159.449855599178	4355.381820755494	0
1140	2158.630350361625	4356.117430777588	0
1141	2159.453311870791	4355.380717088248	0
1142	2159.45250020895	4355.380509159186	0
1143	2160.302190526032	4354.668165827359	0
1144	2160.306338850568	4354.665488578984	0
1145	2161.151749192797	4354.009756332024	0
1146	2160.314283097505	4354.657598895983	0
1147	2161.169405734141	4353.999312682668	0
1148	2161.15191985502	4354.00961455823	0
1149	2161.989289513606	4353.329729991034	0
1150	2161.160378086054	4354.005190575894	0
1151	2161.993067891396	4353.327113714304	0
1152	2161.994580991509	4353.326513773938	0
1153	2167.113289160035	4349.249854055049	0
1154	2167.118906196433	4349.247183173622	0
1155	2167.85604135598	4348.457999294196	0
1156	2167.111294898291	4349.250615078358	0
1157	2167.852605834656	4348.460041613571	0
1158	2167.857625618893	4348.457366109897	0
1159	2186.738636428625	4333.655449119284	0
1160	2186.737838464209	4333.655794258872	0
1161	2187.436932338685	4332.847289692429	0
1162	2186.739449031934	4333.654910641981	0
1163	2187.438228908101	4332.846459056642	0
1164	2187.437782654213	4332.846955846779	0
1165	2192.589691515496	4328.788082911023	0
1166	2192.589542842959	4328.787396177425	0
1167	2193.282103019423	4327.942392942906	0
1168	2192.594171013623	4328.785312057367	0
1169	2193.289218016676	4327.939910741107	0
1170	2193.28792144601	4327.940495209246	0
1171	2214.08485768599	4312.346090833104	0
1172	2214.08358037506	4312.347286261029	0
1173	2214.884628240523	4311.632034210506	0
1174	2214.081923835034	4312.348098602341	0
1175	2214.881041570018	4311.633036592244	0
1176	2214.883951598833	4311.632159868402	0
1177	2215.75421864436	4310.971398397722	0
1178	2215.752067706302	4310.971897396159	0
1179	2216.63369808522	4310.331296994822	0
1180	2215.754605463788	4310.970816018177	0
1181	2216.635337902358	4310.330958269237	0
1182	2216.635239624567	4310.330825343494	0
1183	2220.039875888343	4307.671909640763	0
1184	2220.038857954539	4307.671695367733	0
1185	2220.715194477251	4306.826088204041	0
1186	2220.041100670852	4307.670854540242	0
1187	2220.71658470272	4306.82559024936	0
1188	2220.715804554314	4306.826487142797	0
1189	2224.86267012591	4303.297907833739	0
1190	2224.860002972587	4303.300011804218	0
1191	2225.679892671876	4302.6116885477	0
1192	2224.865364508971	4303.296536665306	0
1193	2225.681888378983	4302.610056119587	0
1194	2225.680132443768	4302.611275258161	0
1195	2227.359751165565	4300.944296106153	0
1196	2227.288405719853	4300.987921246181	0
1197	2227.391861774279	4300.918717929981	0
1198	2227.366103501887	4300.938514823729	0
1199	2228.443367638141	4300.266478942605	0
1200	2228.446920147471	4300.26408724166	0
1201	2229.344605623138	4299.630086644438	0
1202	2228.446717182747	4300.26422252354	0
1203	2229.347004203286	4299.629556700545	0
1204	2229.345551419751	4299.630601716404	0
1205	2230.269086463523	4299.035401343679	0
1206	2230.270071230292	4299.034586831328	0
1207	2231.176105859054	4298.440946142205	0
1208	2230.271601286666	4299.034356178918	0
1209	2231.183191915741	4298.437036233915	0
1210	2231.184081482489	4298.436050578772	0
1211	2236.376485585439	4294.549910416298	0
1212	2236.375536988424	4294.550700900495	0
1213	2237.155870115098	4293.801815044247	0
1214	2237.155404081106	4293.801845376138	0
1215	2237.950569634109	4293.080975908719	0
1216	2236.378600096547	4294.549021482878	0
1217	2237.168950188194	4293.799722557656	0
1218	2237.169195731781	4293.799140296241	0
1219	2237.984388655048	4293.08062566449	0
1220	2237.982614753045	4293.081332382566	0
1221	2238.906563140995	4292.523200720639	0
1222	2238.011244155176	4293.083598411313	0
1223	2238.908663974888	4292.522168869079	0
1224	2238.908755066463	4292.522143609649	0
1225	2241.509182914141	4290.550178117157	0
1226	2241.510067316564	4290.54856278859	0
1227	2242.337330881773	4289.911981434223	0
1228	2241.510063160621	4290.549430724645	0
1229	2242.338430483464	4289.913198037812	0
1230	2242.338771762356	4289.91303486154	0
1231	2250.587162691549	4284.823703094195	0
1232	2250.588394034063	4284.823016849454	0
1233	2251.521966369904	4284.249568556264	0
1234	2250.586016751123	4284.823562450341	0
1235	2251.522361573294	4284.248946294305	0
1236	2251.522226400467	4284.249321606886	0
1237	2258.741183539371	4279.518622475766	0
1238	2258.742736811534	4279.518002356457	0
1239	2259.640885054356	4278.949960995375	0
1240	2258.739906506533	4279.516992217377	0
1241	2259.637702917382	4278.951697002645	0
1242	2259.639640895003	4278.950618525222	0
1243	2264.864344812545	4275.254931991003	0
1244	2264.864508546147	4275.25475580979	0
1245	2265.666001201118	4274.565765139019	0
1246	2264.869068079765	4275.253468719652	0
1247	2265.666256091585	4274.565897942523	0
1248	2265.666372887781	4274.565835180141	0
1249	2273.014404972322	4270.197520793646	0
1250	2273.005810794419	4270.197637344627	0
1251	2273.899347244864	4269.618421354949	0
1252	2273.013322096728	4270.197883786285	0
1253	2273.902733735464	4269.616438531688	0
1254	2273.902564951958	4269.616523654817	0
1255	2276.474990936075	4267.713802855642	0
1256	2276.470011970214	4267.715927589221	0
1257	2277.179537665712	4266.91178565574	0
1258	2276.477150303619	4267.712717058131	0
1259	2277.178593248987	4266.913189503659	0
1260	2277.178587229952	4266.913857894277	0
1261	2307.232849328244	4248.302974107793	0
1262	2307.232616858324	4248.303412604953	0
1263	2308.00142464531	4247.583544921416	0
1264	2307.221257541547	4248.306214281354	0
1265	2307.998931609034	4247.584633933917	0
1266	2308.001176682662	4247.583655575811	0
1267	2315.271839963799	4243.075923552398	0
1268	2315.269787961406	4243.076092845729	0
1269	2316.216087135098	4242.547680333246	0
1270	2315.272673976768	4243.07547294929	0
1271	2316.22857677418	4242.542653778848	0
1272	2316.22816585806	4242.542700329387	0
1273	2321.742648125403	4239.312135595806	0
1274	2321.743828304161	4239.310995780727	0
1275	2322.598533624599	4238.67905116974	0
1276	2321.74065586744	4239.313608447372	0
1277	2322.599571136267	4238.678689430693	0
1278	2322.598905395284	4238.679125960629	0
1279	2323.548074252008	4238.232268511845	0
1280	2323.548314562802	4238.231903759444	0
1281	2324.494530202264	4237.669195767566	0
1282	2323.56346073542	4238.225053324803	0
1283	2324.501835009421	4237.664278411594	0
1284	2324.494480008255	4237.6693512418	0
1285	2363.272824592647	4215.553952233702	0
1286	2363.272848562609	4215.553926472032	0
1287	2364.177912922294	4215.016632280854	0
1288	2363.272226064454	4215.554101540807	0
1289	2364.1762482371	4215.017660818533	0
1290	2364.177952477703	4215.01679514196	0
1291	2392.032279243583	4199.286499286676	0
1292	2392.032606924814	4199.286245208948	0
1293	2392.818671943416	4198.461196341201	0
1294	2392.027983839214	4199.289090726715	0
1295	2392.807899621927	4198.462302707331	0
1296	2392.818099938548	4198.461512621901	0
1297	2454.034493671228	4164.285528756366	0
1298	2454.034439260443	4164.286206240025	0
1299	2454.984181792935	4163.792435041458	0
1300	2454.033848687223	4164.285448611747	0
1301	2454.982567060625	4163.79290410367	0
1302	2454.984671976333	4163.792316668832	0
1303	2457.691485318053	4162.126911299757	0
1304	2457.69158392893	4162.126941100083	0
1305	2458.507064358704	4161.458593952201	0
1306	2457.687970078135	4162.128618673869	0
1307	2458.504140379786	4161.459081677204	0
1308	2458.504634434332	4161.459291899068	0
1309	2464.888857106896	4157.948581179649	0
1310	2464.887698794138	4157.948469385248	0
1311	2464.772304377224	4156.595235039001	0
1312	2464.771874491582	4156.594734791706	0
1313	2465.046163164268	4157.809139967916	0
1314	2464.775905190051	4156.592492078412	0
1315	2465.039032709641	4157.816106277835	0
1316	2465.044813962101	4157.813682847076	0
1317	2470.584109037799	4155.777359233	0
1318	2470.583973588381	4155.77735870317	0
1319	2471.518710750348	4155.257193380485	0
1320	2470.584232483201	4155.777331905309	0
1321	2471.506888965301	4155.255136348253	0
1322	2471.519315219746	4155.25647942774	0
1323	2473.475467771977	4154.375534286541	0
1324	2471.507337556756	4155.254908431094	0
1325	2473.475998629213	4154.375437215896	0
1326	2473.475205032491	4154.375913636512	0
1327	2477.37097037119	4152.52527301919	0
1328	2477.372763696561	4152.524460529072	0
1329	2478.351609387232	4152.057942116802	0
1330	2477.371910940937	4152.52488701848	0
1331	2478.350015026845	4152.058846824401	0
1332	2478.350273853777	4152.058734874952	0
1333	2483.114458944618	4149.634371706486	0
1334	2483.113613711345	4149.634594270108	0
1335	2484.078303177273	4149.228123660956	0
1336	2483.11421424463	4149.634261138153	0
1337	2484.080454922937	4149.227481331288	0
1338	2484.078371184811	4149.22804812857	0
1339	2485.040081031553	4148.716226408554	0
1340	2484.085957132159	4149.224997696487	0
1341	2485.039772380198	4148.716339421236	0
1342	2485.039163207576	4148.716726506191	0
1343	2488.84177737743	4146.846239935055	0
1344	2488.841811849982	4146.84646828843	0
1345	2489.824883920493	4146.446012015806	0
1346	2488.844028426415	4146.845621421619	0
1347	2489.826319810421	4146.445299877498	0
1348	2489.825111369439	4146.445885963314	0
1349	2493.613828649281	4144.566730754982	0
1350	2493.612543086871	4144.567317202983	0
1351	2494.562024518652	4144.020812553888	0
1352	2493.614092061125	4144.566570924717	0
1353	2494.563960801042	4144.019992612508	0
1354	2494.564355997263	4144.019192870172	0
1355	2496.433926049285	4143.0621174935	0
1356	2496.430157612031	4143.064171025935	0
1357	2497.305392341141	4142.499975935152	0
1358	2496.433393954428	4143.062573634937	0
1359	2497.342850424974	4142.504400371104	0
1360	2497.30579338221	4142.499775525594	0
1361	2498.27631607995	4142.025533800939	0
1362	2497.341928046988	4142.504833973404	0
1363	2498.296253700064	4142.019552729392	0
1364	2498.296183113413	4142.019466582781	0
1365	2499.263688388039	4141.562189889308	0
1366	2499.264242945439	4141.560600500725	0
1367	2500.246237397221	4141.131426708695	0
1368	2499.263485273864	4141.562047294345	0
1369	2500.247115013647	4141.131168861017	0
1370	2500.247043113618	4141.131210414367	0
1371	2505.194856126831	4139.001116337104	0
1372	2505.194627585781	4139.001197706717	0
1373	2506.13373804581	4138.559775296749	0
1374	2505.196237692868	4139.000750610642	0
1375	2506.138053505309	4138.557461340553	0
1376	2506.134706530978	4138.558832234117	0
1377	2520.604302879644	4132.081934795957	0
1378	2520.609324793163	4132.07981033996	0
1379	2521.636427213716	4131.869073402923	0
1380	2520.605375777008	4132.081688125942	0
1381	2521.636058010444	4131.869179118386	0
1382	2521.637231187688	4131.868563544557	0
1383	2522.64105081569	4131.50765597731	0
1384	2522.639373131577	4131.508349498303	0
1385	2523.623453127505	4131.218204478554	0
1386	2522.640689852628	4131.507803697654	0
1387	2523.652722747325	4131.206915344506	0
1388	2523.653169136098	4131.206699685918	0
1389	2524.635295123559	4130.854697675908	0
1390	2523.660055453211	4131.204170320701	0
1391	2524.639022405292	4130.853012155638	0
1392	2524.637273258717	4130.854085703651	0
1393	2528.522610012896	4129.172826231432	0
1394	2528.522396273631	4129.17288415313	0
1395	2529.553455046637	4128.877761685815	0
1396	2529.547623341957	4128.881136806403	0
1397	2530.497156046566	4128.390279569266	0
1398	2528.526572529689	4129.170859484448	0
1399	2529.561883788464	4128.874513687144	0
1400	2529.554470600048	4128.877398302288	0
1401	2530.498127340807	4128.389425573221	0
1402	2530.497965871478	4128.389508563318	0
1403	2533.390708334424	4127.0275740677	0
1404	2533.389137960855	4127.028578996771	0
1405	2534.359855376729	4126.558327365753	0
1406	2533.391404926946	4127.027376601179	0
1407	2534.36216510696	4126.551972287557	0
1408	2534.362680115201	4126.55172614147	0
1409	2535.357164615593	4126.126811454033	0
1410	2534.364814791904	4126.55128361664	0
1411	2535.362122692302	4126.12536173791	0
1412	2535.361244036854	4126.125228286635	0
1413	2536.233002194126	4125.460305681265	0
1414	2535.362173257199	4126.125365968115	0
1415	2536.233662747994	4125.461527359568	0
1416	2536.228008416845	4125.45976639421	0
1417	2538.002501963235	4124.260794774275	0
1418	2536.233227544261	4125.460106384282	0
1419	2538.003318023301	4124.262600270797	0
1420	2538.004249139582	4124.262444891499	0
1421	2554.978934296597	4114.89849454364	0
1422	2554.98059480302	4114.899009641964	0
1423	2555.568839634718	4115.593240632569	0
1424	2554.163068410578	4115.523035862176	0
1425	2555.502547807663	4115.519636235699	0
1426	2555.570154731497	4115.591070169121	0
1427	2555.331595289938	4114.661366474128	0
1428	2555.336226816009	4114.659417905372	0
1429	2560.593996641781	4110.812002973551	0
1430	2560.594691441828	4110.811703573821	0
1431	2561.479558849604	4110.128004150182	0
1432	2561.474893323732	4110.127897953616	0
1433	2562.374484503028	4109.506466288698	0
1434	2560.633612830637	4110.78970450368	0
1435	2561.480553051474	4110.128115226545	0
1436	2561.478568715725	4110.12852458954	0
1437	2562.374154260705	4109.507169792232	0
1438	2562.37454499538	4109.506988497146	0
1439	2566.323809057686	4106.985664627901	0
1440	2566.322242853232	4106.98669727258	0
1441	2566.434663638365	4106.914591944425	0
1442	2566.430024778215	4106.917602940422	0
1443	2572.064168631589	4103.030190370566	0
1444	2572.062314548876	4103.031561099226	0
1445	2572.748136304728	4102.234570162707	0
1446	2572.069413080875	4103.027951540221	0
1447	2572.7530003979	4102.231659963797	0
1448	2572.753519390255	4102.231481777491	0
1449	2580.247444953669	4097.952078326851	0
1450	2580.248638974039	4097.951289093602	0
1451	2581.075047912554	4097.27999689673	0
1452	2580.25070871958	4097.950216277206	0
1453	2581.083366215278	4097.276710458152	0
1454	2581.083597580131	4097.276183185963	0
1455	2594.226346383208	4088.483474800745	0
1456	2594.226901359534	4088.482980983465	0
1457	2594.911660486819	4087.671703016434	0
1458	2594.229404209599	4088.482455118058	0
1459	2594.917457388628	4087.669083208397	0
1460	2594.912225784055	4087.670682336683	0
1461	2595.773989162609	4087.042701214149	0
1462	2595.774020812836	4087.042653004495	0
1463	2596.359180169948	4086.163559149668	0
1464	2595.778145073615	4087.041745230571	0
1465	2596.371651951144	4086.166337878974	0
1466	2596.344269920894	4086.159960350846	0
1467	2597.135051767868	4085.483876277414	0
1468	2596.37105836681	4086.166423807755	0
1469	2597.13638317815	4085.483776627701	0
1470	2597.137898246009	4085.482832339491	0
1471	2601.088745257215	4082.108885376198	0
1472	2601.087152894002	4082.109232625945	0
1473	2601.796137014903	4081.370762087015	0
1474	2601.087753405664	4082.108318643469	0
1475	2601.800029520186	4081.369726815117	0
1476	2601.088809193781	4082.108579026085	0
1477	2601.802354909231	4081.369054065254	0
1478	2601.796324921293	4081.370473197017	0
1479	2607.83719816908	4077.220235060622	0
1480	2607.837571452937	4077.219193179327	0
1481	2608.607985610469	4076.516125453087	0
1482	2607.83694447722	4077.220344905446	0
1483	2608.607676010005	4076.516463976466	0
1484	2608.607958700635	4076.516127847133	0
1485	2623.18018501905	4067.913169255368	0
1486	2623.181084158121	4067.912448610818	0
1487	2623.892879334537	4067.144841875956	0
1488	2623.18002804505	4067.913745051735	0
1489	2623.893394319906	4067.144610298089	0
1490	2623.894129489479	4067.144010847534	0
1491	2634.264768697993	4059.84596759717	0
1492	2634.264233997263	4059.846561860239	0
1493	2634.875162695424	4059.006034681681	0
1494	2634.26545733616	4059.845616167873	0
1495	2634.895370619585	4058.997867429292	0
1496	2634.892651618181	4059.000035267383	0
1497	2636.705004326702	4057.846989685453	0
1498	2636.700479259529	4057.848855663648	0
1499	2637.360552320561	4057.06570373971	0
1500	2636.702396640363	4057.847985633586	0
1501	2637.36439391624	4057.06419502066	0
1502	2636.705143936319	4057.846846089226	0
1503	2638.394035185085	4056.597717412968	0
1504	2637.364276632969	4057.064282425899	0
1505	2638.38587448826	4056.600413067157	0
1506	2638.386710320168	4056.599775612623	0
1507	2639.264742407677	4056.00334172917	0
1508	2639.26300993859	4056.004042108091	0
1509	2640.166559740572	4055.470294687879	0
1510	2639.264551898033	4056.003565467277	0
1511	2640.166832119041	4055.470246784983	0
1512	2640.16636105053	4055.470542056418	0
1513	2652.125439917269	4048.660321054898	0
1514	2652.124035645506	4048.6605002632	0
1515	2653.600164136203	4047.264571701789	0
1516	2652.125439918266	4048.660321054971	0
1517	2653.625583104974	4047.262546304847	0
1518	2653.625944203622	4047.262630930668	0
1519	2669.520111187869	4040.585997259638	0
1520	2669.520389366174	4040.585900851598	0
1521	2670.403773921377	4040.031139345722	0
1522	2669.519707730016	4040.586235544301	0
1523	2670.399967853891	4040.032788260357	0
1524	2670.401619638468	4040.032457030049	0
1525	2678.054368261637	4036.113477360053	0
1526	2678.054776968644	4036.113289797514	0
1527	2678.975391694017	4035.608432900448	0
1528	2678.054849574009	4036.113227360882	0
1529	2678.974899976033	4035.608585991557	0
1530	2678.057926742467	4036.112308959897	0
1531	2678.975423702701	4035.60847953352	0
1532	2678.974704206094	4035.608756312592	0
1533	2686.062746259056	4032.592160440106	0
1534	2686.056556011578	4032.595781169244	0
1535	2686.094352324287	4032.574374447281	0
1536	2686.063023566809	4032.592022538389	0
1537	2689.060079741339	4030.951718705417	0
1538	2689.057153321142	4030.953054753619	0
1539	2689.888564097279	4030.292223718755	0
1540	2689.05984922104	4030.951867639762	0
1541	2689.893225760531	4030.290600319936	0
1542	2689.889642316078	4030.292176881993	0
1543	2700.361668807605	4025.381330684465	0
1544	2700.361538126907	4025.381386558938	0
1545	2701.197564856395	4024.788438549552	0
1546	2700.363050727455	4025.381107996427	0
1547	2701.199308616135	4024.787709333049	0
1548	2701.198589688029	4024.788275510839	0
1549	2702.04305172585	4024.217707985663	0
1550	2702.043212986147	4024.217631265579	0
1551	2703.042812684288	4023.956010035712	0
1552	2702.040711571373	4024.218581322138	0
1553	2703.046077935415	4023.954684219574	0
1554	2702.049257480498	4024.215122324553	0
1555	2703.052017273497	4023.951761657336	0
1556	2703.051812965713	4023.951648125139	0
1557	2711.451909865925	4019.427107385253	0
1558	2711.450371511933	4019.42783695374	0
1559	2712.29276874243	4018.842609464012	0
1560	2711.45077213639	4019.427731460126	0
1561	2712.295922668633	4018.841481036518	0
1562	2712.292214468818	4018.842615573758	0
1563	2714.141618039385	4017.883277831739	0
1564	2714.138851204366	4017.884615418562	0
1565	2715.064072132055	4017.331388794178	0
1566	2714.141734042146	4017.883365400497	0
1567	2715.065006458963	4017.331421289336	0
1568	2715.065006457962	4017.33142128936	0
1569	2715.995254386464	4016.824233084979	0
1570	2715.997273100715	4016.823296591623	0
1571	2716.831941880019	4016.214451353197	0
1572	2715.999517349055	4016.822654588924	0
1573	2716.835079336505	4016.213104482526	0
1574	2716.83308250198	4016.213938241981	0
1575	2730.517998335121	4008.440335999354	0
1576	2730.517592921655	4008.440607093017	0
1577	2731.305127727936	4007.690095554178	0
1578	2730.518949488102	4008.439647774642	0
1579	2731.307192148206	4007.689854556121	0
1580	2731.305655344074	4007.690646513173	0
1581	2742.41841320566	4001.795579841192	0
1582	2742.419898450414	4001.794906971146	0
1583	2743.248540886504	4001.161930901298	0
1584	2742.42093026672	4001.795011280366	0
1585	2743.250316601286	4001.161257065861	0
1586	2743.24978794362	4001.161249740655	0
1587	2745.939306630781	3999.547355427176	0
1588	2745.933352738324	3999.550114973359	0
1589	2746.808418592223	3999.017632461275	0
1590	2745.938152607787	3999.547716613555	0
1591	2746.812968450532	3999.01490946842	0
1592	2746.811665593126	3999.015849456283	0
1593	2751.364742898334	3996.23859726154	0
1594	2751.36570429775	3996.238119686722	0
1595	2752.257525437229	3995.648638422183	0
1596	2751.363503292228	3996.23925456533	0
1597	2752.257030918436	3995.648805656466	0
1598	2752.258666190174	3995.648424461672	0
1599	2763.956753484224	3988.592018132983	0
1600	2763.956891475331	3988.591951264959	0
1601	2764.747798111044	3987.897528639259	0
1602	2763.95484701753	3988.592719978684	0
1603	2764.747146578735	3987.897866634916	0
1604	2764.747798110109	3987.897528639612	0
1605	2769.235692949211	3985.146489155676	0
1606	2769.236066576058	3985.146265483996	0
1607	2770.178461149978	3984.615465375891	0
1608	2769.239172766581	3985.144729031943	0
1609	2770.180820112249	3984.614413325013	0
1610	2770.178335147297	3984.615551613777	0
1611	2773.685655972496	3982.215276975032	0
1612	2773.684946459883	3982.215597086367	0
1613	2774.672919374389	3981.842831600727	0
1614	2773.687510530989	3982.214408304539	0
1615	2774.679381969957	3981.840408331235	0
1616	2774.680004396489	3981.840132555094	0
1617	2777.275066058611	3980.095087400526	0
1618	2777.27352883193	3980.095717975947	0
1619	2777.933632282042	3979.317869300661	0
1620	2777.275452197837	3980.094890549824	0
1621	2778.027502436499	3979.355834096314	0
1622	2777.934302173744	3979.31736979408	0
1623	2778.763205655666	3978.664486133102	0
1624	2778.029488048343	3979.355224047431	0
1625	2778.76956819685	3978.663430133515	0
1626	2778.769940978463	3978.663241119273	0
1627	2785.494145405075	3975.527944114994	0
1628	2785.49406310573	3975.527761248015	0
1629	2786.267940792457	3974.80611207231	0
1630	2785.494833698123	3975.526930896699	0
1631	2786.268220941057	3974.806500361698	0
1632	2786.268476519825	3974.806154046758	0
1633	2791.962693054255	3972.124640300859	0
1634	2791.961690559819	3972.125347003422	0
1635	2792.672053045585	3971.362538891558	0
1636	2791.956444489597	3972.128315665839	0
1637	2792.662944174239	3971.363291637027	0
1638	2792.661155712452	3971.36412162915	0
1639	2821.88653097136	3956.832929139209	0
1640	2821.886935909734	3956.833072905758	0
1641	2822.763039151025	3956.238216211703	0
1642	2821.887753282567	3956.832187815189	0
1643	2822.764804887982	3956.237477320139	0
1644	2822.764895437861	3956.237470872015	0
1645	2830.295646040518	3951.897986933107	0
1646	2830.295847318525	3951.897687148326	0
1647	2830.374015758684	3951.853839729829	0
1648	2830.376938094443	3951.852366848616	0
1649	2832.508964044814	3950.681026825492	0
1650	2832.507288632341	3950.680706298395	0
1651	2834.296804125524	3949.612586795009	0
1652	2832.510006602543	3950.679791357759	0
1653	2833.46729257572	3950.191396202341	0
1654	2832.509543116141	3950.680786661769	0
1655	2833.466490102482	3950.19188339578	0
1656	2833.467746806865	3950.191143157121	0
1657	2834.297315084475	3949.612621217344	0
1658	2834.199719202687	3949.613037780726	0
1659	2835.20764445318	3949.117245264175	0
1660	2834.298458232103	3949.61198276234	0
1661	2835.212967369606	3949.114592510585	0
1662	2835.215971012608	3949.113307983661	0
1663	2837.15875304556	3948.232078762308	0
1664	2837.15838118789	3948.232244905174	0
1665	2838.11764180658	3947.770947444968	0
1666	2837.158891620775	3948.232034951215	0
1667	2838.136632308405	3947.765155257721	0
1668	2838.137826495248	3947.764592013556	0
1669	2839.046702121396	3947.243451673452	0
1670	2838.117651527561	3947.770939191767	0
1671	2839.04886464228	3947.243523361508	0
1672	2839.049676743768	3947.243235333864	0
1673	2840.016367925557	3946.853926457657	0
1674	2840.015942958099	3946.853731928719	0
1675	2841.878122505274	3945.848262584806	0
1676	2840.017848725804	3946.853107921951	0
1677	2841.882138301794	3945.846826219199	0
1678	2841.882716843253	3945.846563129465	0
1679	2846.513893561005	3943.476935774458	0
1680	2846.51419943155	3943.476786775362	0
1681	2847.452728788954	3942.980291571811	0
1682	2846.512947784627	3943.477371251359	0
1683	2847.452861335434	3942.979461883343	0
1684	2847.452880612458	3942.979637777695	0
1685	2849.159119503168	3941.786360244404	0
1686	2849.151283664827	3941.788724577425	0
1687	2850.039705331483	3941.216895723255	0
1688	2849.159325629221	3941.786332482642	0
1689	2850.042159727431	3941.216082808265	0
1690	2850.044045360783	3941.215053838172	0
1691	2852.761235160628	3939.670647690577	0
1692	2852.761763182873	3939.670449057237	0
1693	2853.784154000657	3939.182223125948	0
1694	2852.792176207749	3939.661086740703	0
1695	2853.783722399093	3939.182337565735	0
1696	2853.783967861842	3939.18252589137	0
1697	2855.688448720031	3938.206373051828	0
1698	2855.689413260602	3938.206043699381	0
1699	2857.547152383529	3937.199973625134	0
1700	2855.692069673554	3938.205264777652	0
1701	2857.550525482676	3937.198665741342	0
1702	2857.547599796579	3937.199536901399	0
1703	2858.488341166776	3936.73566913761	0
1704	2858.488101412157	3936.735817942772	0
1705	2859.455049611823	3936.273529146203	0
1706	2858.488842815286	3936.735457468611	0
1707	2859.460237123782	3936.271067249259	0
1708	2859.454682444538	3936.273668394466	0
1709	2886.423449464723	3924.58797189648	0
1710	2886.42370785156	3924.587858332693	0
1711	2887.382393961447	3924.168614134846	0
1712	2886.422471366604	3924.588550160072	0
1713	2887.38686109343	3924.167945154292	0
1714	2887.386769741204	3924.168088814046	0
1715	2893.025286206335	3921.365792607007	0
1716	2893.028400339288	3921.364411248646	0
1717	2893.85078839723	3920.710217942967	0
1718	2893.029427115726	3921.364480020805	0
1719	2893.849861834076	3920.710708965623	0
1720	2893.850136975778	3920.710524676059	0
1721	2904.164321698137	3915.568667660162	0
1722	2904.16521480919	3915.568322640696	0
1723	2905.816175506793	3914.218986693746	0
1724	2904.166393033673	3915.567815289851	0
1725	2905.817917640898	3914.218885226491	0
1726	2905.817868132516	3914.218863793366	0
1727	2909.534783139276	3912.281642933749	0
1728	2909.534783138301	3912.281642933973	0
1729	2910.397128446158	3911.683917701709	0
1730	2909.536076254098	3912.281443781127	0
1731	2910.397517241896	3911.684084653858	0
1732	2910.397727922276	3911.684060866841	0
1733	2914.128561664653	3909.78585016567	0
1734	2914.12740312033	3909.786194902676	0
1735	2915.03267837686	3909.301990521499	0
1736	2914.126722286901	3909.786516395864	0
1737	2915.03552826484	3909.300894175237	0
1738	2915.035361689308	3909.301217230252	0
1739	2919.677266223067	3906.762228876517	0
1740	2919.677511966666	3906.762197612585	0
1741	2920.572202458425	3906.210572641344	0
1742	2919.677733052592	3906.762083722248	0
1743	2920.581636072787	3906.207399229849	0
1744	2920.572142566203	3906.210620185301	0
1745	2939.002548083304	3896.573309226802	0
1746	2938.996732970773	3896.575224537079	0
1747	2942.750691532588	3894.567591705398	0
1748	2939.003156676585	3896.572985256508	0
1749	2942.752970753432	3894.566645213394	0
1750	2942.752902151276	3894.566700752363	0
1751	2951.937006320467	3889.783336862339	0
1752	2951.927572719065	3889.7970630959	0
1753	2951.940616421108	3889.768912683041	0
1754	2951.93744059704	3889.783114449975	0
1755	2954.971641460283	3888.223202504484	0
1756	2954.97180618028	3888.223122619334	0
1757	2955.940190625813	3887.720931852305	0
1758	2954.966353647111	3888.225404982872	0
1759	2955.940206550124	3887.719816063157	0
1760	2955.939922245831	3887.721052044164	0
1761	2983.789333994928	3874.883010447691	0
1762	2983.789221060122	3874.883069501626	0
1763	2984.584499000126	3874.11790748792	0
1764	2983.788004772689	3874.884351944183	0
1765	2984.578501762017	3874.119472980834	0
1766	2984.578528078854	3874.119103589934	0
1767	2994.263721232315	3869.576212418643	0
1768	2994.26357731911	3869.576211498595	0
1769	2995.300669876542	3869.232511812929	0
1770	2994.26446267141	3869.575694351839	0
1771	2995.301969396267	3869.231770497446	0
1772	2995.301939479595	3869.2317312421	0
1773	3006.395294749496	3863.476802542402	0
1774	3006.395986494088	3863.476209634283	0
1775	3007.411999039238	3863.166778748381	0
1776	3006.395994945541	3863.475587986751	0
1777	3007.412001847894	3863.166755510949	0
1778	3007.412087941884	3863.166679059604	0
1779	3009.836451189956	3861.260606987555	0
1780	3009.808789226883	3861.265047000106	0
1781	3010.721508355307	3860.728485343075	0
1782	3009.835132336596	3861.26112093872	0
1783	3010.724129619437	3860.727473245122	0
1784	3010.721894608717	3860.728419773516	0
1785	3015.451141915559	3858.281339116593	0
1786	3015.450104601491	3858.281910786686	0
1787	3016.441566305004	3857.883571458165	0
1788	3015.451034059797	3858.281396518893	0
1789	3016.440406900886	3857.88431178429	0
1790	3016.441138314529	3857.883698026868	0
1791	3017.30439837093	3857.295024704045	0
1792	3017.295025633363	3857.296941962405	0
1793	3018.193544587866	3856.710435843403	0
1794	3017.304574036234	3857.294970177211	0
1795	3018.198440854307	3856.708691900817	0
1796	3018.197647060866	3856.709142840313	0
1797	3020.158715521547	3855.870999608508	0
1798	3020.147890009308	3855.871126939522	0
1799	3021.139822729692	3855.4858201159	0
1800	3020.161821766123	3855.870269254809	0
1801	3021.139079297494	3855.48709500587	0
1802	3021.139070030443	3855.487095736999	0
1803	3023.059386535487	3854.585043652596	0
1804	3023.058502791633	3854.58520518685	0
1805	3024.087863627977	3854.407372105431	0
1806	3023.061573314279	3854.584737563245	0
1807	3024.093863880325	3854.405686281986	0
1808	3024.093058706356	3854.406079839237	0
1809	3031.158968831352	3852.126556783581	0
1810	3031.158959708965	3852.126552419535	0
1811	3032.160490361583	3851.818920003736	0
1812	3031.160162440254	3852.126060168123	0
1813	3032.159830898132	3851.819299977869	0
1814	3032.15995196067	3851.819253270514	0
1815	3034.175713409328	3851.224925784469	0
1816	3034.175814098247	3851.224865270827	0
1817	3035.164447006656	3850.966137075103	0
1818	3034.176622900261	3851.224663716416	0
1819	3035.162549102157	3850.967908041046	0
1820	3035.162862525786	3850.967560304049	0
1821	3037.116795869144	3850.248075610687	0
1822	3037.108241019217	3850.251586289911	0
1823	3038.09280795445	3849.79045545288	0
1824	3037.117623782038	3850.247976683622	0
1825	3038.093142893515	3849.790139192105	0
1826	3038.092742926116	3849.790270664874	0
1827	3039.103020681247	3849.468102360213	0
1828	3039.098941736288	3849.469581226168	0
1829	3040.092422133389	3849.128597738255	0
1830	3039.101970524791	3849.468586006624	0
1831	3040.098398392612	3849.126814041529	0
1832	3040.099500848663	3849.126319156947	0
1833	3041.117993165449	3848.807752628877	0
1834	3040.105431967178	3849.124298903154	0
1835	3041.119367085387	3848.807943292754	0
1836	3041.117746370966	3848.80785051474	0
1837	3043.097175646981	3848.207396691346	0
1838	3043.094184368934	3848.208615239625	0
1839	3044.091584061328	3848.018186462789	0
1840	3043.096152126686	3848.207810541456	0
1841	3044.106410265092	3848.007825131304	0
1842	3044.107205936732	3848.007063161539	0
1843	3045.130096248487	3847.790302169201	0
1844	3045.130498649521	3847.790116099212	0
1845	3046.148388042006	3847.719857077798	0
1846	3045.136068662967	3847.787348272909	0
1847	3046.152378489363	3847.718674700546	0
1848	3046.152452766035	3847.718523578571	0
1849	3047.165990927843	3847.321004327559	0
1850	3047.136463955202	3847.340261235579	0
1851	3048.138044616876	3847.06657860515	0
1852	3047.166391596013	3847.320764698736	0
1853	3048.145826724916	3847.063196574322	0
1854	3048.13746087238	3847.066884763407	0
1855	3052.122043100765	3845.531641070256	0
1856	3052.122221254004	3845.53149187817	0
1857	3053.103685590603	3845.183654103893	0
1858	3052.122311452795	3845.531544718085	0
1859	3053.109088306432	3845.181983395651	0
1860	3053.103509614441	3845.183716337254	0
1861	3068.995588331281	3839.192635901275	0
1862	3068.99578620673	3839.192589694749	0
1863	3069.618767551015	3838.36776208273	0
1864	3069.003892739808	3839.193180703127	0
1865	3069.622568203016	3838.366432408518	0
1866	3069.619538207041	3838.367556592674	0
1867	3109.525673517302	3820.266633555255	0
1868	3109.527432058031	3820.266144765801	0
1869	3110.406570098574	3819.687017831536	0
1870	3109.526735266143	3820.266313377956	0
1871	3110.371545579544	3819.670004206468	0
1872	3110.405825266609	3819.687158959361	0
1873	3111.363374987083	3819.259526193785	0
1874	3110.372325906647	3819.669670929458	0
1875	3111.35363814426	3819.26152913067	0
1876	3111.362650911966	3819.259610331539	0
1877	3114.376223504779	3818.502948112965	0
1878	3114.379211770469	3818.501542664513	0
1879	3115.34592110097	3818.060232331874	0
1880	3114.375629443341	3818.503078811837	0
1881	3115.341098244553	3818.062286445883	0
1882	3115.342947496071	3818.061179702307	0
1883	3116.330489862545	3817.667309601556	0
1884	3115.344423159113	3818.057941261246	0
1885	3116.327409093245	3817.668997953199	0
1886	3116.330682615132	3817.667252852944	0
1887	3145.221855683271	3806.681215229508	0
1888	3145.223999916128	3806.680779731926	0
1889	3146.115189989294	3806.108268340867	0
1890	3145.222238919676	3806.681307131159	0
1891	3146.104426944918	3806.111913682091	0
1892	3146.116159168687	3806.107857773353	0
1893	3154.087561529967	3802.975341518879	0
1894	3154.086899705483	3802.975598520093	0
1895	3155.087795957806	3802.6076751352	0
1896	3154.087452290611	3802.975382294077	0
1897	3155.101069363983	3802.602961090932	0
1898	3155.100906835738	3802.603013243739	0
1899	3204.140651884853	3784.292382745061	0
1900	3204.142303006879	3784.29168175697	0
1901	3205.092309897777	3783.866991838573	0
1902	3204.143309179211	3784.291275043981	0
1903	3205.093130083264	3783.866887040635	0
1904	3205.092677199624	3783.866828431916	0
1905	3226.554084221689	3774.869514119439	0
1906	3226.554322560863	3774.869469526361	0
1907	3227.3757722686	3774.200094969849	0
1908	3226.558896249652	3774.868982502544	0
1909	3227.379991469911	3774.201797328503	0
1910	3227.375870277024	3774.199947289038	0
1911	3231.967051041259	3771.502247085581	0
1912	3231.967877962442	3771.501952484651	0
1913	3232.849375141238	3770.911153857125	0
1914	3231.96692122669	3771.502322860689	0
1915	3232.849199049763	3770.911393038731	0
1916	3232.849736881762	3770.911106559936	0
1917	3246.895652628187	3763.505282157775	0
1918	3246.895545066112	3763.504893206909	0
1919	3247.914870300988	3763.233157240753	0
1920	3246.89638287677	3763.504852866278	0
1921	3247.914632931741	3763.233375923301	0
1922	3247.914870301965	3763.233157240543	0
1923	3250.721212209741	3761.588918708688	0
1924	3250.720810441822	3761.589123305866	0
1925	3251.608967779795	3761.052108465352	0
1926	3250.724428263282	3761.587850605832	0
1927	3251.617475849668	3761.049375501931	0
1928	3251.610225172702	3761.051668271413	0
1929	3287.302327024574	3742.800146802448	0
1930	3287.303412610176	3742.79974264181	0
1931	3288.003694040445	3742.137476892082	0
1932	3287.293674707509	3742.802452248709	0
1933	3287.92860923824	3742.130964059256	0
1934	3288.003776192995	3742.137437849806	0
1935	3294.914008671272	3739.435779524117	0
1936	3294.913356440097	3739.435866266	0
1937	3295.742620896229	3738.853709675381	0
1938	3294.912682214159	3739.436360698602	0
1939	3295.74371726753	3738.853496052388	0
1940	3295.743634729175	3738.853534609159	0
1941	3309.199049331145	3733.28202229899	0
1942	3309.199163491335	3733.281972541626	0
1943	3310.05520236132	3732.707189598985	0
1944	3309.197707243462	3733.282556694662	0
1945	3310.056824022696	3732.707440492356	0
1946	3310.05696350722	3732.707344406308	0
1947	3326.78850362949	3726.05434655313	0
1948	3326.787323814466	3726.054908161685	0
1949	3327.743666566332	3725.634169843493	0
1950	3326.788697328268	3726.05421533781	0
1951	3327.743896979793	3725.634085651701	0
1952	3327.743890909447	3725.634067429213	0
1953	3332.600653684743	3723.540338400279	0
1954	3332.601755124168	3723.539851089779	0
1955	3333.560674705147	3723.036910420012	0
1956	3332.600656742304	3723.539967198669	0
1957	3333.560239338874	3723.036747296787	0
1958	3333.561462502561	3723.036246928763	0
1959	3334.55161426192	3722.668106077646	0
1960	3334.552417045325	3722.667808366784	0
1961	3335.4344496873	3722.093287348935	0
1962	3334.552124716066	3722.66788755209	0
1963	3335.437364930421	3722.09231435084	0
1964	3335.433322226134	3722.093936899078	0
1965	3341.546849748891	3720.162673396959	0
1966	3341.545675779139	3720.163032039304	0
1967	3342.535719276209	3719.74840169162	0
1968	3341.546749011819	3720.162719043838	0
1969	3342.537635767683	3719.747981407362	0
1970	3342.539085947526	3719.747472256948	0
1971	3352.463541318757	3716.509134883761	0
1972	3352.463808738364	3716.508887283542	0
1973	3353.492125256115	3716.20840972411	0
1974	3352.460720956707	3716.509596540921	0
1975	3353.487657116413	3716.21012375363	0
1976	3353.488217277407	3716.209774238228	0
1977	3356.577847681749	3715.512838504768	0
1978	3356.576810306613	3715.513158734826	0
1979	3357.537288251748	3715.130434047412	0
1980	3356.578209309005	3715.512730430225	0
1981	3357.53953180398	3715.12983681068	0
1982	3357.538828296448	3715.130135924652	0
1983	3358.558199795626	3714.892987779737	0
1984	3358.539431594143	3714.901359136102	0
1985	3359.541911353298	3714.507341190667	0
1986	3358.556397664512	3714.893801903155	0
1987	3359.544528611889	3714.50608801929	0
1988	3359.541659077958	3714.507521693707	0
1989	3368.699646361092	3711.098457507333	0
1990	3368.644329231413	3711.127931336789	0
1991	3368.7301193025	3711.08324976115	0
1992	3368.730119303358	3711.083249760636	0
1993	3372.738254611065	3708.781027304554	0
1994	3372.712570898667	3708.794372103148	0
1995	3372.753459713259	3708.772347379972	0
1996	3372.75399470509	3708.772068811526	0
1997	3375.006668200604	3707.792116809623	0
1998	3375.003870745452	3707.793080211709	0
1999	3375.818360330235	3707.093686253288	0
2000	3375.02690309682	3707.787447528254	0
2001	3375.821462039759	3707.092146747665	0
2002	3375.821772257059	3707.09226980482	0
2003	3386.226974005126	3701.991947876571	0
2004	3386.225188413135	3701.992873178875	0
2005	3386.959088430386	3701.25899849321	0
2006	3386.22719968351	3701.991687332551	0
2007	3386.967671735817	3701.256052074905	0
2008	3386.967699576992	3701.25613233301	0
2009	3391.843438072106	3699.007169245656	0
2010	3391.844111430963	3699.006854046671	0
2011	3392.742088488926	3698.4323838102	0
2012	3391.84343589872	3699.007170645385	0
2013	3392.742432853151	3698.432426492253	0
2014	3392.742036353633	3698.432608947153	0
2015	3393.675484675448	3697.995060553777	0
2016	3393.673462626008	3697.995270876104	0
2017	3394.648166558584	3697.639566613345	0
2018	3393.675018375597	3697.994967403138	0
2019	3394.676980943878	3697.627870404285	0
2020	3394.675812277581	3697.628410243093	0
2021	3412.452396821568	3690.677787484897	0
2022	3412.451911279139	3690.677986286915	0
2023	3413.436588137467	3690.298261323886	0
2024	3412.457344991501	3690.676293371062	0
2025	3413.443474995393	3690.296416389838	0
2026	3413.438261279514	3690.297828866508	0
2027	3417.377100328989	3688.73006843401	0
2028	3417.375841418649	3688.730594837607	0
2029	3418.409459870941	3688.474752972992	0
2030	3417.37628881155	3688.730374895618	0
2031	3418.419485734837	3688.470841122059	0
2032	3418.409843107809	3688.474566633749	0
2033	3419.370811504616	3688.05083996132	0
2034	3419.371236623816	3688.050776321963	0
2035	3420.285275350708	3687.526317113053	0
2036	3419.371008308201	3688.050303180517	0
2037	3420.286170345209	3687.525862874826	0
2038	3420.28763727594	3687.524946126957	0
2039	3421.236694272024	3687.057179674995	0
2040	3421.236416659917	3687.056473931759	0
2041	3422.142783688293	3686.502796775277	0
2042	3421.237569374102	3687.056670745456	0
2043	3422.144483300925	3686.502102217187	0
2044	3422.145684688043	3686.502033136547	0
2045	3423.056737962605	3685.947540206485	0
2046	3423.04730291793	3685.950313488214	0
2047	3423.876048845059	3685.298400454702	0
2048	3423.056466972224	3685.947395863177	0
2049	3423.878617746973	3685.297493609954	0
2050	3423.879276625296	3685.297275904843	0
2051	3437.065733305131	3679.036165699893	0
2052	3437.066117555002	3679.03591322398	0
2053	3437.867304911134	3678.327084808093	0
2054	3437.061997087694	3679.037791541874	0
2055	3437.864128134369	3678.327734224113	0
2056	3437.867993962687	3678.326823067223	0
2057	3442.614331835425	3675.888856384131	0
2058	3442.614331834597	3675.88885638469	0
2059	3443.558398465252	3675.391397082618	0
2060	3442.616672230727	3675.888011270526	0
2061	3443.561292734694	3675.390185072135	0
2062	3443.55951683942	3675.390741440317	0
2063	3451.442405109805	3672.183262746556	0
2064	3451.442474238325	3672.183282942077	0
2065	3452.375363481215	3671.727541811019	0
2066	3451.443007725493	3672.183331502666	0
2067	3452.373086369766	3671.728498753084	0
2068	3452.374663223154	3671.727975304676	0
2069	3458.069838150262	3668.888278162404	0
2070	3458.069587444221	3668.888096491885	0
2071	3459.035108005523	3668.52555335801	0
2072	3458.064908576565	3668.889627239947	0
2073	3459.032881746539	3668.526390919651	0
2074	3459.035047212046	3668.525586089465	0
2075	3461.813431169037	3667.103580190613	0
2076	3461.815230158893	3667.102431795503	0
2077	3462.76395039912	3666.650850831413	0
2078	3461.810144411647	3667.103773609286	0
2079	3462.767390974478	3666.649228113793	0
2080	3462.767529757379	3666.649159668272	0
2081	3465.750798180269	3665.436597668765	0
2082	3465.741204588118	3665.439975399716	0
2083	3467.541446714445	3664.279726964765	0
2084	3465.750345399018	3665.436952686704	0
2085	3467.54101815739	3664.279610112529	0
2086	3467.542418680004	3664.279662550143	0
2087	3468.487790350099	3663.827657353116	0
2088	3468.48772625246	3663.827689614505	0
2089	3469.478993066792	3663.49379843059	0
2090	3468.488533023648	3663.827658493596	0
2091	3469.480316349187	3663.493254991254	0
2092	3469.478790249617	3663.493846157494	0
2093	3485.194098766481	3657.113131811502	0
2094	3485.194815612461	3657.113046139626	0
2095	3485.913605054787	3656.330824804596	0
2096	3485.207406653036	3657.113334817769	0
2097	3485.914660386436	3656.330960650841	0
2098	3485.912907748341	3656.330913843956	0
2099	3488.458338414903	3654.482245762541	0
2100	3488.45788361812	3654.482432710486	0
2101	3489.282341352653	3653.827254100996	0
2102	3488.459490318312	3654.482026442852	0
2103	3489.288958471024	3653.825598101972	0
2104	3489.28251481143	3653.827315923207	0
2105	3493.938324404695	3651.294892066748	0
2106	3493.938627288305	3651.294667371046	0
2107	3494.816783008255	3650.711836642495	0
2108	3493.935384917995	3651.296196845861	0
2109	3494.814835949145	3650.712113699517	0
2110	3494.819460237147	3650.710767266404	0
2111	3508.107096332785	3644.284546667006	0
2112	3508.109952293348	3644.283138105985	0
2113	3509.044381708479	3643.87159886555	0
2114	3508.10746699239	3644.284372618303	0
2115	3509.044043130908	3643.87191480465	0
2116	3509.044369773729	3643.871658809848	0
2117	3516.88137673138	3640.863289843787	0
2118	3516.880794353812	3640.863243604062	0
2119	3517.862632805446	3640.489296448382	0
2120	3516.882304193066	3640.862997092773	0
2121	3517.8669575211	3640.487617111623	0
2122	3517.862707935931	3640.489231480559	0
2123	3518.834622421118	3640.104555581362	0
2124	3518.833716030503	3640.104990791197	0
2125	3519.789023269082	3639.689572968795	0
2126	3518.840956332952	3640.102864045096	0
2127	3519.79303671607	3639.689043888558	0
2128	3519.794027566413	3639.687471838921	0
2129	3523.457628730249	3637.760924251387	0
2130	3523.457161210336	3637.761266548627	0
2131	3524.273392799269	3637.070779675036	0
2132	3523.457757472906	3637.76108085655	0
2133	3524.278781384772	3637.070265113728	0
2134	3524.278781385751	3637.070265113527	0
2135	3529.198179035836	3634.894473714714	0
2136	3529.197127943952	3634.894459593828	0
2137	3530.243019449945	3634.604660545416	0
2138	3529.198363424737	3634.894469493752	0
2139	3530.242970978064	3634.604718341532	0
2140	3530.243015459971	3634.604700297311	0
2141	3543.616746204599	3628.159060998712	0
2142	3543.612897547717	3628.160210704845	0
2143	3544.468700454259	3627.585707817726	0
2144	3543.616746205594	3628.15906099881	0
2145	3544.471794150244	3627.584652861431	0
2146	3544.468996008867	3627.585568697776	0
2147	3545.322475549244	3626.976504276141	0
2148	3545.322582194193	3626.976451797686	0
2149	3546.158933907804	3626.349668927863	0
2150	3546.15429769059	3626.350655782272	0
2151	3546.997079646257	3625.73761599726	0
2152	3545.322709070069	3626.976846574731	0
2153	3546.162078051887	3626.348614795886	0
2154	3546.163573859985	3626.348234142718	0
2155	3546.999097199333	3625.737424783852	0
2156	3546.99629495991	3625.737780749638	0
2157	3557.409971992262	3620.519030747137	0
2158	3557.418300783571	3620.515475389356	0
2159	3558.300696903138	3619.950673815376	0
2160	3557.412180098956	3620.518141293265	0
2161	3558.299687352979	3619.951123909397	0
2162	3558.302281962765	3619.95040823765	0
2163	3564.161866369837	3617.352304226514	0
2164	3564.157801921503	3617.354081074042	0
2165	3566.056543318817	3616.27168845472	0
2166	3564.161866370749	3617.352304226103	0
2167	3566.062287501653	3616.269058917184	0
2168	3566.056372441922	3616.271759591021	0
2169	3574.876310398324	3612.29414115432	0
2170	3574.877241381455	3612.293951989458	0
2171	3575.581102946128	3611.491842384281	0
2172	3574.888314538769	3612.290706053962	0
2173	3575.586949762635	3611.490149573705	0
2174	3575.579494543841	3611.492840665921	0
2175	3577.435162197163	3610.531341231585	0
2176	3577.434247929485	3610.531840018426	0
2177	3578.245602241622	3609.803563820797	0
2178	3577.435828551937	3610.531581985142	0
2179	3578.251562346952	3609.801471838864	0
2180	3578.245950585298	3609.802930942246	0
2181	3581.806497519539	3607.535269341618	0
2182	3581.806138957199	3607.533860343086	0
2183	3582.724959573666	3607.000205004442	0
2184	3581.805845130903	3607.535511074946	0
2185	3582.726819573494	3607.000877469361	0
2186	3582.725349630328	3607.001646758345	0
2187	3583.581262814883	3606.31769937335	0
2188	3583.58141355025	3606.317386188229	0
2189	3584.193304363233	3605.492601758223	0
2190	3583.579709339906	3606.318029818753	0
2191	3584.193530143286	3605.4923234689	0
2192	3583.581569218611	3606.317580816794	0
2193	3584.197395578791	3605.491480213765	0
2194	3584.193600300777	3605.492480859728	0
2195	3597.290990520066	3598.171830273722	0
2196	3597.290302912386	3598.170990327804	0
2197	3598.050432286782	3597.454960497882	0
2198	3597.987720588205	3597.46186176659	0
2199	3598.642675415577	3596.619698705269	0
2200	3597.292996068682	3598.170914908625	0
2201	3598.050458926297	3597.45495522643	0
2202	3598.05043228776	3597.454960497674	0
2203	3598.660122949356	3596.617153333602	0
2204	3598.66062634135	3596.617024047229	0
2205	3611.418107263125	3590.759464452851	0
2206	3611.417749497899	3590.759743372354	0
2207	3612.081567937339	3589.968493967145	0
2208	3611.420633706	3590.759539854882	0
2209	3612.081004191855	3589.969219219624	0
2210	3612.082332380212	3589.968271464507	0
2211	3614.729363683749	3588.188465578007	0
2212	3614.728415867439	3588.18822626905	0
2213	3615.639817554994	3587.660697753995	0
2214	3614.729854164351	3588.188213989147	0
2215	3615.645904984508	3587.659816666266	0
2216	3615.640119661465	3587.660693238132	0
2217	3625.762356095442	3582.224427111596	0
2218	3625.761159042585	3582.224852461634	0
2219	3626.464905509648	3581.483088030873	0
2220	3625.763599678091	3582.224114176127	0
2221	3626.47914790075	3581.478639319691	0
2222	3626.479259593815	3581.478621296442	0
2223	3640.487457947128	3575.835881212347	0
2224	3640.485416154693	3575.836468806453	0
2225	3642.65842572664	3575.609009819026	0
2226	3640.488156743749	3575.835732903554	0
2227	3642.662418027681	3575.607635161824	0
2228	3642.660854744096	3575.607826369086	0
2229	3643.696626555406	3575.298226246274	0
2230	3643.697666643386	3575.2976762474	0
2231	3644.713497008301	3574.929635222337	0
2232	3643.695575848754	3575.29920008516	0
2233	3644.714458382506	3574.929856189725	0
2234	3644.715763757665	3574.928432289411	0
2235	3664.478309060071	3565.821510712643	0
2236	3664.478476534747	3565.821505523603	0
2237	3665.515077314313	3565.553582157927	0
2238	3664.474481690185	3565.823550774629	0
2239	3665.515012917548	3565.553910793926	0
2240	3665.515445472899	3565.553353574111	0
2241	3687.185821717683	3554.033404437447	0
2242	3687.18601111685	3554.03304869146	0
2243	3687.385386377177	3553.955645664591	0
2244	3687.263390887085	3554.00318173295	0
2245	3696.523892565102	3551.455740493052	0
2246	3696.524137597537	3551.455464289632	0
2247	3696.538168596625	3551.583359540464	0
2248	3696.529257703878	3551.498823765852	0
2249	3697.401929014629	3551.104138472848	0
2250	3697.401788534245	3551.104199715794	0
2251	3696.602015331428	3551.116688125562	0
2252	3697.406134665071	3551.103352054944	0
2253	3696.615776169318	3551.138348094258	0
2254	3696.60186904231	3551.116853002859	0
2255	3705.159964073496	3543.705151909	0
2256	3705.15788670318	3543.708136033202	0
2257	3706.210839176694	3543.264840042042	0
2258	3705.158091264779	3543.705675285977	0
2259	3706.207455534189	3543.266003183447	0
2260	3706.210740408489	3543.264856955896	0
2261	3719.841741455533	3536.913275355885	0
2262	3719.844133067569	3536.912282184647	0
2263	3720.657090915641	3536.217612370234	0
2264	3719.841967946718	3536.913142465842	0
2265	3720.656421282606	3536.216571351477	0
2266	3720.656003828328	3536.216938694897	0
2267	3722.61187408224	3535.313164639701	0
2268	3722.608158695996	3535.313983412713	0
2269	3723.546020111884	3534.862912276362	0
2270	3722.611747394757	3535.313203451606	0
2271	3723.548384423809	3534.862150281039	0
2272	3723.547194360472	3534.862548604952	0
2273	3725.584125286315	3534.072071726641	0
2274	3725.584010670848	3534.071738882455	0
2275	3726.435830102306	3533.494992128531	0
2276	3725.584475082424	3534.071683358174	0
2277	3726.440150868682	3533.499171973303	0
2278	3726.43552418856	3533.490232303169	0
2279	3727.393495096297	3532.997842727341	0
2280	3726.439605663525	3533.493905200886	0
2281	3727.423969178474	3533.001117947444	0
2282	3727.393308213418	3532.998255189786	0
2283	3728.388431394335	3532.564902762027	0
2284	3727.423912138564	3533.000903762424	0
2285	3728.39896997438	3532.560987248592	0
2286	3728.389364339421	3532.564743184259	0
2287	3732.368383515163	3530.994368712659	0
2288	3732.351663659507	3530.999107017525	0
2289	3733.271931095755	3530.554688268039	0
2290	3732.370484698561	3530.993654900327	0
2291	3733.27878780093	3530.552761702397	0
2292	3733.277777627552	3530.552554117782	0
2293	3745.20442069742	3525.563367252925	0
2294	3745.204737814787	3525.563238707748	0
2295	3746.188497903188	3525.100432045036	0
2296	3745.199782214288	3525.565014022166	0
2297	3746.188074233743	3525.100413061728	0
2298	3746.188232346301	3525.100591361635	0
2299	3760.29548667372	3520.78461818764	0
2300	3760.295579940635	3520.784560551878	0
2301	3761.258216432974	3520.337131271825	0
2302	3760.292531878655	3520.785944346914	0
2303	3761.257273894625	3520.337162261293	0
2304	3761.258817518257	3520.33685680543	0
2305	3762.240136791166	3519.933485433762	0
2306	3762.238322304085	3519.934185645302	0
2307	3763.198957894726	3519.467275485135	0
2308	3762.239132912367	3519.93398680966	0
2309	3763.205390295691	3519.465694482965	0
2310	3763.205029451406	3519.465525593788	0
2311	3780.576400311148	3511.988085839968	0
2312	3780.575009894628	3511.988812194036	0
2313	3781.426924667403	3511.392801967686	0
2314	3781.427723593933	3511.392292302745	0
2315	3782.301624342206	3510.810159001725	0
2316	3780.572476458803	3511.989462455201	0
2317	3781.38164807062	3511.369710317525	0
2318	3781.41219787434	3511.384273096013	0
2319	3782.30193276709	3510.810371273295	0
2320	3781.443639256156	3511.39770194418	0
2321	3782.331151918465	3510.800903456521	0
2322	3782.304112985639	3510.809310670875	0
2323	3796.969328718363	3504.755148190029	0
2324	3796.978722510248	3504.752763560716	0
2325	3798.053313153696	3504.655148212943	0
2326	3796.966967251284	3504.756039565238	0
2327	3798.051730756594	3504.655572891503	0
2328	3796.98392380819	3504.751543545356	0
2329	3798.047840573268	3504.655968307909	0
2330	3798.052500721093	3504.655235364834	0
2331	3800.090700651015	3503.859555208286	0
2332	3800.090388422167	3503.859684825105	0
2333	3801.069737755317	3503.456901465218	0
2334	3800.094068365534	3503.856994028897	0
2335	3801.066471546829	3503.457678444684	0
2336	3801.067952895045	3503.457348597211	0
2337	3802.101541344335	3503.191611940912	0
2338	3802.102151037936	3503.191831486231	0
2339	3803.100288342446	3502.974666963145	0
2340	3802.10196370217	3503.191486075623	0
2341	3803.149470500141	3502.947797249977	0
2342	3803.099090390446	3502.974944106571	0
2343	3804.147099775792	3502.615756178525	0
2344	3803.149552370961	3502.947764746614	0
2345	3804.149072300012	3502.615532826244	0
2346	3804.149158016178	3502.615538906352	0
2347	3805.200903747025	3502.470260274682	0
2348	3805.160163431809	3502.491444850746	0
2349	3806.254894455719	3502.369006678614	0
2350	3805.200677295798	3502.47032027814	0
2351	3806.259160703968	3502.36714069373	0
2352	3806.258958964084	3502.367095399566	0
2353	3807.343966014323	3502.036593738098	0
2354	3807.336484901241	3502.03972128003	0
2355	3808.395845931202	3501.926536207369	0
2356	3807.344408730088	3502.036262985725	0
2357	3808.402041125736	3501.922785234267	0
2358	3808.402196510201	3501.922956479375	0
2359	3812.489165417197	3500.438880111942	0
2360	3812.487335127517	3500.439571781231	0
2361	3813.433675926704	3499.939704544106	0
2362	3812.487745404764	3500.439350482613	0
2363	3813.433483505113	3499.939648791523	0
2364	3813.4339151074	3499.939616457415	0
2365	3819.654351563736	3498.13394990355	0
2366	3819.651701831769	3498.134951419075	0
2367	3820.658539401813	3497.814211299339	0
2368	3819.654915767207	3498.133750888586	0
2369	3820.659028501976	3497.814373916864	0
2370	3820.658838404767	3497.814150387454	0
2371	3830.841446365669	3494.505193655274	0
2372	3830.841693429864	3494.505114820613	0
2373	3831.838380288757	3494.195210848382	0
2374	3830.839765798156	3494.505489823176	0
2375	3831.840198372061	3494.193802023508	0
2376	3831.838009526278	3494.195357643402	0
2377	3832.858767610206	3493.882141988574	0
2378	3832.859458508951	3493.88194528937	0
2379	3833.880132008508	3493.525344658792	0
2380	3832.860177484003	3493.881502624159	0
2381	3833.881103375496	3493.525130224322	0
2382	3833.880445151312	3493.525387659433	0
2383	3841.866512676861	3490.443683557159	0
2384	3841.863980563167	3490.444718845416	0
2385	3842.732224929424	3489.802063144767	0
2386	3841.86677664468	3490.443575457572	0
2387	3842.732799098306	3489.802718285573	0
2388	3842.733836263134	3489.802178180839	0
2389	3852.562781099457	3485.946772317348	0
2390	3852.55691365225	3485.949071808528	0
2391	3853.420796904502	3485.276268685058	0
2392	3852.561327887432	3485.947265485293	0
2393	3853.427448579137	3485.273721059513	0
2394	3853.428039539942	3485.273420887333	0
2395	3861.41345234831	3482.023803388413	0
2396	3861.412349744543	3482.023895408174	0
2397	3862.415184759322	3481.672105796386	0
2398	3861.413375932751	3482.023826313035	0
2399	3862.415030563144	3481.672038941125	0
2400	3862.414779181611	3481.672293874647	0
2401	3863.461551159893	3481.477745188718	0
2402	3863.461844541711	3481.477618373617	0
2403	3865.499980285571	3480.770114352736	0
2404	3863.466269594349	3481.476591247198	0
2405	3865.504587086916	3480.769031015412	0
2406	3865.50049286819	3480.769753644066	0
2407	3868.288948951265	3479.416961283146	0
2408	3868.288805987147	3479.417052375808	0
2409	3869.156926686821	3478.739033244987	0
2410	3868.296264340986	3479.41521074447	0
2411	3869.160324391098	3478.738033604309	0
2412	3869.161955597042	3478.737468027114	0
2413	3878.545714087907	3475.808370005198	0
2414	3878.544126834639	3475.809031293592	0
2415	3879.498771549254	3475.38391618514	0
2416	3878.538405102274	3475.811150346673	0
2417	3879.49638167948	3475.384444484589	0
2418	3878.549870920878	3475.808058742142	0
2419	3879.500271975969	3475.383551821921	0
2420	3879.499829647352	3475.383715981218	0
2421	3881.548517960025	3474.67761420535	0
2422	3881.406969540925	3474.763366550153	0
2423	3882.46284714918	3474.232938528618	0
2424	3881.547368740843	3474.678193016337	0
2425	3882.466104271665	3474.231376949274	0
2426	3882.463393560514	3474.232712847489	0
2427	3883.448423376935	3473.806237033538	0
2428	3883.448423376132	3473.806237034134	0
2429	3884.446594504671	3473.324908665296	0
2430	3883.449954543942	3473.80558151854	0
2431	3884.447092037559	3473.325487406044	0
2432	3884.450392280254	3473.324246897605	0
2433	3921.140706098384	3457.937678124922	0
2434	3921.143299024052	3457.936906382992	0
2435	3922.175499647734	3457.603531140903	0
2436	3921.140010720031	3457.937724640761	0
2437	3922.136225298109	3457.603732583521	0
2438	3922.174287113449	3457.604053846949	0
2439	3923.120469668615	3457.109612524071	0
2440	3922.136208359795	3457.603729987959	0
2441	3923.118606278954	3457.109664754888	0
2442	3923.119380601144	3457.109591763255	0
2443	3927.164147652124	3455.484916683997	0
2444	3927.16507864353	3455.484795090003	0
2445	3928.112574831525	3455.106998682752	0
2446	3927.163806170089	3455.485179754074	0
2447	3928.111786181395	3455.107165364429	0
2448	3928.112180313561	3455.107167804533	0
2449	3940.145040648009	3450.306174963609	0
2450	3940.144018582426	3450.306250829645	0
2451	3941.158697930664	3449.899430854447	0
2452	3940.145122165464	3450.306128196881	0
2453	3941.160324334692	3449.898708777455	0
2454	3941.160744911518	3449.898543818782	0
2455	3945.227710572118	3448.319259756579	0
2456	3945.226106124547	3448.320009111284	0
2457	3946.103330778754	3447.715376345825	0
2458	3945.245843787648	3448.317854224096	0
2459	3946.111864165224	3447.713358643229	0
2460	3946.106016868945	3447.714113256933	0
2461	3947.044769706521	3447.168594124062	0
2462	3947.046326826178	3447.167806269012	0
2463	3948.01847283843	3446.67271496507	0
2464	3947.046497611508	3447.167310326156	0
2465	3948.024669223306	3446.675742018936	0
2466	3948.025785123345	3446.675209795697	0
2467	3949.020962730456	3446.293666146572	0
2468	3948.035824454407	3446.67665332265	0
2469	3949.024767041515	3446.292521200732	0
2470	3949.019816774469	3446.294069179371	0
2471	3953.877846774943	3444.128951615089	0
2472	3953.86688078747	3444.131787062605	0
2473	3954.855648689553	3443.726156963233	0
2474	3953.878032962255	3444.128915452772	0
2475	3954.860233332953	3443.724560513921	0
2476	3954.861682620012	3443.723793215774	0
2477	3956.877571110094	3442.914266625841	0
2478	3956.874274964754	3442.915010052383	0
2479	3957.87779697855	3442.569635595331	0
2480	3956.878174873746	3442.914184032963	0
2481	3957.876347010737	3442.57023868831	0
2482	3957.877032233775	3442.569912569105	0
2483	3962.991757859628	3440.886110058853	0
2484	3962.989803650952	3440.886293159153	0
2485	3964.021939814543	3440.619056041505	0
2486	3962.991678415297	3440.886138835308	0
2487	3964.024971875195	3440.617935762493	0
2488	3964.025190886823	3440.61785075647	0
2489	3968.076872213463	3439.112840449094	0
2490	3968.072464999934	3439.11467508253	0
2491	3969.031086849873	3438.635811165277	0
2492	3968.077380711726	3439.112768269452	0
2493	3969.031839268157	3438.636137889101	0
2494	3969.032437147634	3438.635599000435	0
2495	3972.063115348434	3437.522306917284	0
2496	3972.063731597153	3437.522117069451	0
2497	3973.075672645227	3437.100284009358	0
2498	3972.067360937283	3437.520822968602	0
2499	3973.080996010041	3437.098837060377	0
2500	3973.081523047067	3437.09860882434	0
2501	3979.155218782455	3434.82448513676	0
2502	3979.155126090856	3434.8245610278	0
2503	3980.139045273094	3434.415083373312	0
2504	3979.155896988928	3434.82436452171	0
2505	3980.135780097985	3434.416705332843	0
2506	3980.13875856859	3434.416303140348	0
2507	3985.111938893989	3432.509704473482	0
2508	3985.103599166946	3432.512397027323	0
2509	3986.143669210881	3432.184723067669	0
2510	3985.11188234415	3432.509780803023	0
2511	3986.156330319904	3432.180642311849	0
2512	3986.142990339305	3432.184777159089	0
2513	3987.164992206908	3431.885555436445	0
2514	3986.155949553805	3432.180719989208	0
2515	3987.176471212484	3431.879349834541	0
2516	3987.166184518407	3431.8848468586	0
2517	3988.207261327705	3431.596371010593	0
2518	3988.20829689407	3431.596020880548	0
2519	3989.261134663281	3431.319368587021	0
2520	3988.210839746922	3431.594994653744	0
2521	3989.259299054627	3431.319951932994	0
2522	3989.260201284428	3431.319556413798	0
2523	3993.513035502199	3430.756855752709	0
2524	3993.494897392227	3430.764184076626	0
2525	3994.589159491172	3430.567934334326	0
2526	3993.513259481984	3430.756696383138	0
2527	3994.600993823783	3430.561161682633	0
2528	3994.588351947429	3430.567696887053	0
2529	3995.921953242714	3430.255304454852	0
2530	3995.925113543582	3430.255369777622	0
2531	3996.04056976093	3430.249400388205	0
2532	3996.041999536202	3430.248823237147	0
2533	4011.84429504065	3425.24087254002	0
2534	4011.842034870641	3425.240864805229	0
2535	4012.934739401175	3425.155534224928	0
2536	4011.846282673238	3425.240423646355	0
2537	4012.937995212276	3425.154423241588	0
2538	4012.93701401351	3425.154787963115	0
2539	4014.000367941321	3424.883606530446	0
2540	4012.938173481793	3425.154358804449	0
2541	4014.001857247596	3424.882535345826	0
2542	4014.002605492088	3424.882096535618	0
2543	4038.582208596129	3416.648105059219	0
2544	4038.583716651287	3416.647629510493	0
2545	4039.538041925316	3416.151437824655	0
2546	4038.600500481089	3416.64512503058	0
2547	4039.540455742506	3416.151005828779	0
2548	4039.540105167906	3416.151156133598	0
2549	4047.438216119453	3412.874313558701	0
2550	4047.431822826707	3412.876305337788	0
2551	4048.427066832444	3412.344075355999	0
2552	4047.441000066221	3412.874237363452	0
2553	4048.427554356462	3412.343749174516	0
2554	4048.427103330981	3412.344104648579	0
2555	4051.435409497356	3411.164782782034	0
2556	4051.430747644908	3411.166438226109	0
2557	4052.427926672644	3410.825609049281	0
2558	4051.438260090325	3411.163683044527	0
2559	4052.430549629004	3410.824707351321	0
2560	4052.430766574165	3410.824617711476	0
2561	4055.494092406517	3409.772125347596	0
2562	4055.490158715989	3409.773368992073	0
2563	4056.57391417327	3409.643856294743	0
2564	4055.497757780189	3409.771086984164	0
2565	4056.574983243667	3409.643259766742	0
2566	4056.574151081077	3409.643632297479	0
2567	4095.728919590485	3396.996685779574	0
2568	4095.731131499178	3396.995735606752	0
2569	4096.793014746062	3397.038908377746	0
2570	4095.723164022712	3396.998237510208	0
2571	4096.77267813767	3397.046483233724	0
2572	4096.791792390274	3397.039386635231	0
2573	4101.113171005575	3396.144380041381	0
2574	4101.103936150541	3396.148842191356	0
2575	4103.121757985049	3395.337382307133	0
2576	4101.11203590983	3396.145572850811	0
2577	4103.124394512889	3395.336212456905	0
2578	4103.124807099808	3395.335938197048	0
2579	4107.170890520247	3393.931580954467	0
2580	4107.169199423953	3393.932545866805	0
2581	4108.158739899437	3393.53557224691	0
2582	4107.17111082415	3393.932074779767	0
2583	4108.160490782117	3393.536670523455	0
2584	4108.158799671212	3393.535556117967	0
2585	4109.129565200004	3393.046465411925	0
2586	4109.125469314071	3393.04787128693	0
2587	4109.837318860436	3392.31101904866	0
2588	4109.129336383147	3393.046561582344	0
2589	4109.856524265478	3392.306100232272	0
2590	4109.803336967064	3392.319205954039	0
2591	4110.807954031127	3391.916250580433	0
2592	4109.860348554274	3392.305015677115	0
2593	4110.832714213607	3391.910150381347	0
2594	4110.832305621264	3391.910100411857	0
2595	4120.602700350071	3389.52003017403	0
2596	4120.603694400848	3389.519522931978	0
2597	4121.613112566775	3389.245577958704	0
2598	4120.599002962525	3389.523353801007	0
2599	4121.588258097571	3389.256440720402	0
2600	4121.614299704479	3389.245807401783	0
2601	4123.806623030334	3388.671685897451	0
2602	4123.809540717038	3388.671833740693	0
2603	4124.885490216097	3388.335445809613	0
2604	4123.804509097458	3388.672675101247	0
2605	4124.883082450098	3388.336124170629	0
2606	4124.883494109098	3388.335946614792	0
2607	4125.883563208365	3387.962038191372	0
2608	4125.886303970458	3387.960197746534	0
2609	4126.808976564561	3387.410016432881	0
2610	4125.889981331853	3387.960273472447	0
2611	4126.811927237622	3387.409277396117	0
2612	4126.809139796418	3387.409878061484	0
2613	4138.76721431371	3382.724592171101	0
2614	4138.765004782783	3382.724987927769	0
2615	4139.507486144398	3382.11823836385	0
2616	4138.759646585778	3382.726310839766	0
2617	4139.503821242361	3382.119730572093	0
2618	4139.507273360317	3382.118418652949	0
2619	4144.965212577732	3380.459247987297	0
2620	4144.966213589138	3380.45883415202	0
2621	4145.990297888334	3380.139942291074	0
2622	4144.975343129231	3380.456858332413	0
2623	4145.99138114467	3380.139615276133	0
2624	4145.990434063245	3380.139879189059	0
2625	4158.328805586332	3375.641098091398	0
2626	4158.329609619213	3375.641009974846	0
2627	4159.104248864131	3374.887837467971	0
2628	4158.330177876672	3375.641999288337	0
2629	4159.110577515861	3374.885366364631	0
2630	4159.110870320993	3374.885188775057	0
2631	4208.907874909523	3357.898989137478	0
2632	4208.908147046012	3357.898886708602	0
2633	4209.708681104448	3357.158521850268	0
2634	4209.708516023939	3357.15861615428	0
2635	4225.844900057913	3348.164650245792	0
2636	4208.917539627122	3357.898051425528	0
2637	4209.745075060428	3357.163503324918	0
2638	4209.716857003596	3357.156474092347	0
2639	4222.39002178712	3351.9520270731	0
2640	4222.389686118827	3351.952259430414	0
2641	4223.235039159187	3351.315039860875	0
2642	4222.390162563386	3351.952850022134	0
2643	4223.238507265026	3351.315986324048	0
2644	4223.236837377441	3351.314087196265	0
2645	4225.868494706534	3348.156678977189	0
2646	4225.861729674687	3348.159194340895	0
2647	4236.142741015275	3342.474510204287	0
2648	4236.126159081758	3342.48101092479	0
2649	4236.801879451081	3341.669031137725	0
2650	4236.156649391495	3342.4699248199	0
2651	4236.823334992361	3341.662306563073	0
2652	4236.825282478962	3341.661383992531	0
2653	4241.919220392889	3339.454156958039	0
2654	4241.892308089356	3339.465871458555	0
2655	4242.954956918709	3339.184932518945	0
2656	4241.919795682365	3339.453904928634	0
2657	4242.960889294151	3339.181912226181	0
2658	4242.960889295045	3339.18191222573	0
2659	4269.138869301351	3327.375209114079	0
2660	4269.138687295175	3327.375278281686	0
2661	4270.09227105964	3326.814841210861	0
2662	4269.137044891423	3327.375797444126	0
2663	4270.092721066299	3326.814698319125	0
2664	4270.093517427082	3326.814530872582	0
2665	4271.094575394097	3326.293702382002	0
2666	4271.094976133383	3326.293696393174	0
2667	4272.033771688398	3325.737327764292	0
2668	4271.0945859222	3326.29373230621	0
2669	4272.030058163527	3325.737513708681	0
2670	4272.030989744648	3325.737099956168	0
2671	4280.016508069518	3322.089614570768	0
2672	4280.017079051396	3322.089389425061	0
2673	4280.962992444867	3321.507462947429	0
2674	4280.018165327831	3322.089240797903	0
2675	4280.963891215983	3321.507360449623	0
2676	4280.963828909281	3321.507345870434	0
2677	4287.99875572086	3318.210410475172	0
2678	4287.99932312898	3318.20975174407	0
2679	4288.979656687668	3317.703168489781	0
2680	4287.998511979314	3318.210524705255	0
2681	4288.978607801395	3317.704164339266	0
2682	4288.97916859248	3317.703580739138	0
2683	4299.800594250458	3312.467964868785	0
2684	4299.7982518782	3312.469392220064	0
2685	4300.722371297594	3311.90340776	0
2686	4299.799375949076	3312.468460151006	0
2687	4300.727125285056	3311.901850223734	0
2688	4300.723831731409	3311.90302114174	0
2689	4301.709138429299	3311.330185816456	0
2690	4301.708077857766	3311.330838296919	0
2691	4302.627070958386	3310.701371491669	0
2692	4301.708816216829	3311.330373594514	0
2693	4302.62573558744	3310.702467193909	0
2694	4302.628426656735	3310.700719094415	0
2695	4308.578884545882	3308.002446821201	0
2696	4308.577375819913	3308.003554846624	0
2697	4309.533419770191	3307.4790994548	0
2698	4308.580136032237	3308.002146937248	0
2699	4309.537311433932	3307.477497134425	0
2700	4309.538718198351	3307.476841408459	0
2701	4312.510509735388	3305.967435671727	0
2702	4312.51032004138	3305.966589235587	0
2703	4313.509939066227	3305.507162553278	0
2704	4312.51441148384	3305.966228213146	0
2705	4313.504631959298	3305.509916613756	0
2706	4313.504370031882	3305.509883849455	0
2707	4320.520084313555	3302.471504605565	0
2708	4320.518186797903	3302.471785462422	0
2709	4321.559224823649	3301.925004521114	0
2710	4320.521642416008	3302.470863639071	0
2711	4321.566755592076	3301.923524816162	0
2712	4321.561431272114	3301.923968008667	0
2713	4324.544960047992	3300.564536386153	0
2714	4324.541101307682	3300.566056888549	0
2715	4325.581511677778	3299.962315617849	0
2716	4324.543966113642	3300.564680893311	0
2717	4325.586134691932	3299.960829602835	0
2718	4325.585567574751	3299.960921693374	0
2719	4332.829986532571	3296.882037765043	0
2720	4332.830395740976	3296.881857572908	0
2721	4333.86268305282	3296.422437086016	0
2722	4333.862999752322	3296.422731116923	0
2723	4334.886400265389	3295.673082365832	0
2724	4334.888086680421	3295.672152811933	0
2725	4334.951064767436	3295.672412208776	0
2726	4332.833055708665	3296.881388251818	0
2727	4333.885428545743	3296.421496784616	0
2728	4333.882704133071	3296.422712147862	0
2729	4334.940979472592	3295.674019401462	0
2730	4334.943474699126	3295.672850659355	0
2731	4344.389618240053	3292.112996310127	0
2732	4344.389708170344	3292.112919870768	0
2733	4345.455137055271	3291.751607478112	0
2734	4344.391125767026	3292.113232650038	0
2735	4345.460988721208	3291.749177395494	0
2736	4345.457972794496	3291.750237808611	0
2737	4346.520295037591	3291.328069032208	0
2738	4345.463703841235	3291.74764172727	0
2739	4346.530805540688	3291.323141300148	0
2740	4346.524348370725	3291.326353109358	0
2741	4358.942127036346	3286.332824838076	0
2742	4358.943596143537	3286.332138198327	0
2743	4360.033462057929	3286.035760093959	0
2744	4358.943657047453	3286.332163082641	0
2745	4360.040766669102	3286.033755056689	0
2746	4360.042496512826	3286.03346530244	0
2747	4361.291239518106	3285.560045386643	0
2748	4361.294823484487	3285.558147009104	0
2749	4361.341534009006	3285.539582349327	0
2750	4361.340705311722	3285.538840407915	0
2751	4362.87404693905	3285.119707946571	0
2752	4362.875809516444	3285.1191788174	0
2753	4363.11773638094	3285.003788611043	0
2754	4362.832910109852	3285.140788306367	0
2755	4363.093948641414	3285.015738054884	0
2756	4363.095899267521	3285.014901723001	0
2757	4364.281378614396	3284.36086171616	0
2758	4364.279870310726	3284.361416889331	0
2759	4365.343914526731	3283.93061764941	0
2760	4364.283887674151	3284.36023265559	0
2761	4365.343713613871	3283.931036583236	0
2762	4365.342101092849	3283.931099824456	0
2763	4370.703516552256	3281.787290706388	0
2764	4370.703056220682	3281.787471052632	0
2765	4371.377121552481	3282.446828545884	0
2766	4371.375355848661	3282.447436849633	0
2767	4371.315524943341	3281.596172448601	0
2768	4371.379241420041	3282.444178435562	0
2769	4371.319422442436	3281.594651631971	0
2770	4371.316777311827	3281.593886235823	0
2771	4376.471146041238	3279.089973206746	0
2772	4376.467327840689	3279.091982255866	0
2773	4377.384534634608	3278.511501815789	0
2774	4376.470843295741	3279.090263949596	0
2775	4377.393941627519	3278.508199043838	0
2776	4377.393915633018	3278.50830740543	0
2777	4387.600501839867	3274.059185650801	0
2778	4387.600899581907	3274.058957122554	0
2779	4388.67113141859	3273.79408526904	0
2780	4387.60174779723	3274.058071497072	0
2781	4388.670499262356	3273.794094585963	0
2782	4388.670384834184	3273.794356163153	0
2783	4396.854660562537	3270.2626365409	0
2784	4396.794387428444	3270.287904315168	0
2785	4397.828242767744	3269.84994720813	0
2786	4396.857642684107	3270.261464368437	0
2787	4397.88987561605	3269.824892116128	0
2788	4397.887176492837	3269.825435563378	0
2789	4402.196534998943	3268.146971369898	0
2790	4402.198992658632	3268.145849474947	0
2791	4403.143543874522	3267.614419945009	0
2792	4402.200577662214	3268.148240571087	0
2793	4403.148238410649	3267.614260561551	0
2794	4403.144239849003	3267.614099640191	0
2795	4414.289403799969	3262.630657013256	0
2796	4414.26890055766	3262.638421486742	0
2797	4415.176310602746	3261.984266223829	0
2798	4414.288082131024	3262.631401622073	0
2799	4415.182282337152	3261.982880813012	0
2800	4415.181796746967	3261.983093932276	0
2801	4418.274349233326	3260.799680888034	0
2802	4418.271478864043	3260.800717306204	0
2803	4419.255073267988	3260.282781541639	0
2804	4418.27472198646	3260.799446080742	0
2805	4419.258328191124	3260.282163685756	0
2806	4419.25449985508	3260.283064152371	0
2807	4421.306867974635	3259.314791341425	0
2808	4421.303323094879	3259.316172547425	0
2809	4422.309419184931	3258.835654104252	0
2810	4421.305516561851	3259.315473075674	0
2811	4422.31753482838	3258.83230256753	0
2812	4421.305744117391	3259.315441682387	0
2813	4422.322517746242	3258.831055048385	0
2814	4422.318597264101	3258.831625429835	0
2815	4424.341226771921	3257.914013102877	0
2816	4424.341979438385	3257.913929484132	0
2817	4425.298303009778	3257.405398662338	0
2818	4424.345803479349	3257.912641998797	0
2819	4425.300078435642	3257.405055530232	0
2820	4425.300554721263	3257.404912554363	0
2821	4426.321702649576	3256.897291085442	0
2822	4426.309650766372	3256.900495753047	0
2823	4427.329378996075	3256.473276114791	0
2824	4426.324433618713	3256.895856386802	0
2825	4427.331442812681	3256.474182664173	0
2826	4427.336535339191	3256.472122577619	0
2827	4428.356314552442	3255.994247042628	0
2828	4428.354871639874	3255.995112652607	0
2829	4429.339850725923	3255.54812974394	0
