idx	X	Y	component
0	1000	1066.269049433955	0
1	1282.138942413302	1022.808036622771	0
2	1282.138940823343	1022.808037364598	0
3	1283.12399083538	1022.635126545525	0
4	1282.138929391148	1022.808038455535	0
5	1283.124037823272	1022.635124119251	0
6	1283.124024082264	1022.635125169429	0
7	1483.365549941856	1022.106227734044	0
8	1483.365545670789	1022.106229542169	0
9	1484.318835011075	1021.80056538118	0
10	1483.365542754701	1022.106228757799	0
11	1484.318843370855	1021.800562683921	0
12	1484.318824596405	1021.800568754611	0
13	1731.625268844504	1027.107564162193	0
14	1731.625165730034	1027.107563586137	0
15	1734.639013597523	1027.089593054275	0
16	1731.625251165365	1027.107564132495	0
17	1734.638953415615	1027.089587933313	0
18	1734.638945110798	1027.089593416875	0
19	1742.499148704716	1028.767019617506	0
20	1742.499124721438	1028.767014428889	0
21	1743.49480186441	1028.889282770503	0
22	1742.499153854671	1028.767021247583	0
23	1743.494805251004	1028.889278585318	0
24	1743.494805196658	1028.889276916873	0
25	1744.498213878344	1028.904763031462	0
26	1744.498213732144	1028.904761535691	0
27	1745.497739276931	1028.80683763122	0
28	1744.498238717843	1028.904760011182	0
29	1745.497747136879	1028.806850522569	0
30	1745.49774976189	1028.806835342698	0
31	1779.904725069009	1021.667224842161	0
32	1779.904714050846	1021.667227128419	0
33	1780.879735521258	1021.433418142601	0
34	1779.904736538846	1021.667222659376	0
35	1780.879744604977	1021.433418102657	0
36	1780.879745648698	1021.433416292403	0
37	1823.788650093059	1016.96192342576	0
38	1823.788640892338	1016.96190776466	0
39	1824.78833396022	1017.03733259763	0
40	1823.78868497304	1016.961921682867	0
41	1824.788446639408	1017.03734937651	0
42	1824.788339585634	1017.037330519547	0
43	2220.073158493864	1044.580609221406	0
44	2220.073160425425	1044.580600275481	0
45	2221.035669379148	1044.862847567006	0
46	2220.073178161758	1044.580609796009	0
47	2221.035690428984	1044.862850509445	0
48	2221.035704955952	1044.862844048475	0
49	2532.632679646282	1033.450695960641	0
50	2532.632679113755	1033.450695957604	0
51	2533.621022779687	1033.280297435918	0
52	2532.632714724818	1033.450703679582	0
53	2533.621008211261	1033.280299080103	0
54	2533.621022778703	1033.280297435738	0
55	2568.398005250576	1028.088356941986	0
56	2568.39799908305	1028.088360189082	0
57	2570.385271770328	1027.777253104007	0
58	2568.398140686785	1028.088349157237	0
59	2570.385541368631	1027.777259929119	0
60	2570.385541369601	1027.777259929358	0
61	2572.397948462059	1027.74126190807	0
62	2572.397930270919	1027.741260548698	0
63	2573.402443080104	1027.793948136275	0
64	2572.397972933957	1027.741260058687	0
65	2573.402466020786	1027.793948604346	0
66	2573.402469696347	1027.793948511742	0
67	2581.447290979313	1027.643158544137	0
68	2581.447395924452	1027.643176142244	0
69	2582.450461619819	1027.712640794216	0
70	2581.44734118767	1027.643161497687	0
71	2582.450551401493	1027.712654258064	0
72	2582.450565277864	1027.712654126169	0
73	2598.302198694304	1030.590477166069	0
74	2598.302180664133	1030.590474013318	0
75	2599.270950493839	1030.860047304987	0
76	2598.302156636159	1030.590465901168	0
77	2599.270943929927	1030.860039368054	0
78	2599.270904952822	1030.860033952943	0
79	2601.209040359493	1031.401869130349	0
80	2601.209137495639	1031.401903374188	0
81	2603.132309393227	1031.994021847894	0
82	2601.209105148164	1031.401882242272	0
83	2603.132350103965	1031.994007205214	0
84	2603.132357883403	1031.994034560676	0
85	2615.84320281116	1035.069039480471	0
86	2615.8431513596	1035.069036465122	0
87	2616.806866324695	1035.356070669952	0
88	2615.843202812132	1035.069039480706	0
89	2616.806961201556	1035.356088327506	0
90	2616.806954703004	1035.356083743036	0
91	2621.752631295629	1036.292396149209	0
92	2621.752688053488	1036.2924025976	0
93	2622.737939137749	1036.491002776948	0
94	2621.752647602571	1036.292387615198	0
95	2622.737999117119	1036.49097354737	0
96	2622.738057261619	1036.490987047077	0
97	2734.194809525838	1030.202546744071	0
98	2734.194771218219	1030.202543147197	0
99	2735.170796469356	1029.965849819228	0
100	2734.194863133381	1030.202544790238	0
101	2735.170817566808	1029.965870992273	0
102	2735.170868665219	1029.965844114	0
103	2772.973124055016	1024.661849935411	0
104	2772.972951299414	1024.661872589644	0
105	2773.961858832669	1024.489082896673	0
106	2772.973135708	1024.661848821793	0
107	2773.961885890071	1024.489084036124	0
108	2773.961900659311	1024.489082704439	0
109	2787.637541721732	1021.149617331695	0
110	2787.637501073326	1021.149620293042	0
111	2788.614597249129	1020.917233270847	0
112	2787.637543280512	1021.149617338472	0
113	2788.614650489951	1020.917238828713	0
114	2788.614655380222	1020.917235854401	0
115	2863.965270019327	1018.500839074053	0
116	2863.965274117715	1018.500821350714	0
117	2864.9543651635	1018.679498865701	0
118	2863.965203059966	1018.500826699922	0
119	2864.954435927515	1018.679504747569	0
120	2864.954408851257	1018.679502257357	0
121	2955.744754165908	1030.200858830337	0
122	2955.744760439222	1030.20085881864	0
123	2956.715068216837	1030.458504003552	0
124	2955.744777046863	1030.200847165149	0
125	2956.715122886368	1030.45850279966	0
126	2956.715068217821	1030.458504003731	0
127	2991.875331040688	1031.41195439997	0
128	2991.875307224436	1031.411957819502	0
129	2996.848847961437	1030.705601778593	0
130	2991.875339617818	1031.411954393465	0
131	2996.848820928095	1030.705607128313	0
132	2996.848972045721	1030.705596345682	0
133	3035.625888100985	1025.076720008006	0
134	3035.625800218444	1025.076720712543	0
135	3036.591075648493	1024.803210063869	0
136	3035.625886075453	1025.076719728763	0
137	3036.591163811475	1024.80322755686	0
138	3036.591068039032	1024.803223004323	0
139	3211.44618491763	1025.894520082028	0
140	3211.446198139538	1025.894520143227	0
141	3211.481499122883	1025.905566522933	0
142	3211.461043297943	1025.899223547365	0
143	3222.36932636776	1029.290611570209	0
144	3222.368686059436	1029.290413095185	0
145	3223.284242936451	1029.700652097056	0
146	3222.368545044856	1029.290364430513	0
147	3223.284138876545	1029.700601914058	0
148	3223.284076230873	1029.700573123361	0
149	3437.614182459909	1026.421953364259	0
150	3437.614151301467	1026.42195304952	0
151	3438.587131292316	1026.181460208981	0
152	3437.614182460908	1026.421953364269	0
153	3438.587171101827	1026.181457919604	0
154	3438.587125485531	1026.181461820638	0
155	3468.638904806783	1027.101516306537	0
156	3468.63886556015	1027.101518337112	0
157	3469.549291714374	1027.52212883521	0
158	3468.63889894493	1027.101516184948	0
159	3469.549342605193	1027.52213215391	0
160	3469.549330453546	1027.522128470713	0
161	3996.126069829491	1026.38195656221	0
162	3996.12601191529	1026.381964230845	0
163	3997.021945332675	1025.931376029052	0
164	3996.126054013723	1026.381957389001	0
165	3997.022104364082	1025.931382095815	0
166	3997.022099632014	1025.931380679741	0
167	4010.696671256836	1022.741088939128	0
168	4010.696504952805	1022.741094047951	0
169	4011.670926099763	1022.512357017418	0
170	4010.696677494012	1022.741090552418	0
171	4011.671253756592	1022.512350366492	0
172	4011.670852761646	1022.512352778842	0
173	4128.485726005728	1034.620264345092	0
174	4128.485765486223	1034.620268984441	0
175	4129.44462410538	1034.907993473993	0
176	4128.485809691052	1034.620268147884	0
177	4129.44474794927	1034.907989730417	0
178	4129.444767390387	1034.907989225946	0
179	4272.49104578772	1024.059080246371	0
180	4272.490834100331	1024.059091987597	0
181	4273.30913025177	1023.481189467029	0
182	4272.491082228957	1024.059082280756	0
183	4273.309245057612	1023.48118524796	0
184	4273.309144225569	1023.481186355602	0
185	4592.76897936469	1021.42655066913	0
186	4592.768952170843	1021.426557116855	0
187	4593.523318810217	1020.768083049594	0
188	4592.769110595134	1021.426552127778	0
189	4593.523593117074	1020.768078800506	0
190	4593.523579513018	1020.768078767675	0
191	5296.355683059921	1033.81712298048	0
192	5296.35573316379	1033.817133374509	0
193	5297.192892950875	1033.265423557654	0
194	5296.356542240686	1033.817131923404	0
195	5297.193957428211	1033.265447649381	0
196	5297.193966283726	1033.265446241352	0
197	5472.271785816297	1021.837350639074	0
198	5472.271644477863	1021.837349803068	0
199	5474.275843164631	1021.832125707656	0
200	5472.271819117685	1021.837350310766	0
201	5474.276304677584	1021.832128341286	0
202	5474.276308303006	1021.832128274153	0
203	5678.211684714486	1021.617097782016	0
204	5678.211618650066	1021.617143904987	0
205	5678.970833406192	1020.953737234483	0
206	5678.212453441778	1021.617153032013	0
207	5678.971758437381	1020.953788779266	0
208	5678.971704330814	1020.953820263145	0
209	5739.246609086586	1015.659288504771	0
210	5739.245192437949	1015.659095588453	0
211	5740.230911889849	1015.433976300415	0
212	5739.246546626961	1015.659286108168	0
213	5740.231969626413	1015.434166998353	0
214	5740.230804358426	1015.4340023579	0
215	5770.460867066357	1019.280488108569	0
216	5770.460748746843	1019.280403054356	0
217	5771.348951706633	1019.768739632598	0
218	5770.462294380418	1019.280475600119	0
219	5771.350318390169	1019.768725999221	0
220	5771.350778049155	1019.768801218451	0
221	5804.254982322679	1027.208108424695	0
222	5804.254375834361	1027.208029346761	0
223	5805.064328706973	1027.828813528273	0
224	5804.256373060573	1027.208228399083	0
225	5805.066249585859	1027.828885678739	0
226	5805.064490528291	1027.82886430087	0
227	5868.412549631058	1041.028226679149	0
228	5868.374134563853	1041.032440420065	0
229	5868.449278783739	1041.023428112022	0
230	5868.408666100933	1041.028164141727	0
231	5877.217015659765	1040.926277883555	0
232	5877.216388607267	1040.926433122879	0
233	5877.2475305281	1040.915223840963	0
234	5877.247494177958	1040.915218242626	0
235	5898.480156162238	1033.198532182804	0
236	5898.47977743148	1033.199009518444	0
237	5897.10531566509	1025.020991224165	0
238	5897.107060468558	1025.022545817722	0
239	5897.641117117595	1024.126965022391	0
240	5897.10489183975	1025.021276339548	0
241	5897.645658508221	1024.127303950042	0
242	5897.641566627138	1024.127260478331	0
243	5898.512344592677	1023.620046322758	0
244	5898.511555431682	1023.620094381126	0
245	5899.49150525692	1023.243418889119	0
246	5898.512220998839	1023.619529015258	0
247	5899.491295859915	1023.244873836395	0
248	5899.491482065598	1023.244848774357	0
249	5900.524279023195	1023.466445265486	0
250	5900.524279022199	1023.466445265582	0
251	5901.413423443661	1024.035033622784	0
252	5900.524734484644	1023.466373032027	0
253	5901.415146975723	1024.035336475031	0
254	5901.415173831744	1024.035589337475	0
255	5902.158438535744	1024.794693545718	0
256	5902.158737365036	1024.794327928717	0
257	5902.317225805604	1025.907135711194	0
258	5902.157723644103	1024.795388637672	0
259	5902.316953806313	1025.908382630203	0
260	5902.31748948859	1025.906343299991	0
261	5902.391640714181	1027.00875614585	0
262	5902.392238781392	1027.007268636669	0
263	5902.098005032291	1028.104468477303	0
264	5902.390356672982	1027.009424622694	0
265	5902.093102456029	1028.115317289597	0
266	5902.097463259624	1028.104939179041	0
267	5898.543854779058	1033.1510625312	0
268	5898.543845669993	1033.151062506877	0
269	5930.899679747728	1039.833391818972	0
270	5930.899127598685	1039.832893562312	0
271	5931.824268450208	1039.383909937334	0
272	5930.898641178844	1039.832998015303	0
273	5931.824752784584	1039.38406506154	0
274	5931.825006015143	1039.384180707723	0
275	5932.826254722289	1039.060853587108	0
276	5932.825094863943	1039.060800966509	0
277	5933.824999932966	1038.782671713675	0
278	5932.826496031004	1039.060966578049	0
279	5933.827737908894	1038.783582886494	0
280	5933.826122850727	1038.783157542439	0
281	6050.53612680748	1026.939298456538	0
282	6050.535473038451	1026.93926011674	0
283	6051.548368305874	1026.786248481738	0
284	6050.536139427893	1026.93928973885	0
285	6051.54866405109	1026.786253455906	0
286	6051.548416485025	1026.786289898796	0
287	6093.07721729418	1029.912454409878	0
288	6093.077193702773	1029.912459292613	0
289	6094.093305448815	1029.87366102589	0
290	6093.07808098474	1029.912474379749	0
291	6094.094084050806	1029.873592842223	0
292	6094.094091637113	1029.873578711983	0
293	6101.10195562749	1028.79444092062	0
294	6101.101930494957	1028.794442801095	0
295	6103.09065360757	1028.398677862344	0
296	6101.10232297766	1028.794441742501	0
297	6103.090680587502	1028.398702819402	0
298	6103.090493986077	1028.398687782858	0
299	6120.008780895581	1025.195142313616	0
300	6120.0087392751	1025.195120953188	0
301	6120.967187575105	1024.852362182846	0
302	6120.00880042106	1025.195175037628	0
303	6120.968407943975	1024.852359913342	0
304	6120.967371080149	1024.852374358611	0
305	6159.322434566398	1022.460250772874	0
306	6159.32233852911	1022.460271361952	0
307	6161.292379971555	1021.986572789403	0
308	6159.322459038133	1022.460299327421	0
309	6161.292498253308	1021.986566429598	0
310	6161.29247243989	1021.986558024416	0
311	6162.284587992423	1021.804771008857	0
312	6162.284650168092	1021.804757250071	0
313	6163.295933060308	1021.697346165283	0
314	6162.284712803701	1021.804767138379	0
315	6163.296306786993	1021.697342468281	0
316	6163.29609726852	1021.697330018937	0
317	6184.443256664803	1019.637410706942	0
318	6184.442808005433	1019.637446090585	0
319	6185.451680924021	1019.701631113766	0
320	6184.443232608846	1019.637413938321	0
321	6185.452538970018	1019.701593298093	0
322	6185.4513779781	1019.701626542852	0
323	6188.451310213159	1020.164987212932	0
324	6188.451314786978	1020.164975562407	0
325	6189.436594577718	1020.395812501207	0
326	6188.451325743471	1020.164972389483	0
327	6189.436453486402	1020.395793298121	0
328	6189.436442128783	1020.395789488613	0
329	6195.452694727763	1021.174721210317	0
330	6195.452675695923	1021.174735293877	0
331	6196.421790323932	1021.447198946346	0
332	6195.452718056525	1021.174723720989	0
333	6196.421875760039	1021.447172481177	0
334	6196.422130329959	1021.447164903271	0
335	6240.567355664487	1026.030033694469	0
336	6240.567288749362	1026.030023398111	0
337	6241.535051714112	1026.320019246622	0
338	6240.567309136896	1026.030026567248	0
339	6241.535066965514	1026.319996588887	0
340	6241.535075257002	1026.319996587459	0
341	6262.280752618113	1030.630587677238	0
342	6262.280887168412	1030.63061055473	0
343	6263.272784853666	1030.804027538908	0
344	6262.280825791454	1030.630594597991	0
345	6263.272900121843	1030.804025910168	0
346	6263.273003686547	1030.804044174929	0
347	6266.284602147108	1031.119189523083	0
348	6266.284742795201	1031.119193743316	0
349	6267.270735373409	1031.343677930426	0
350	6266.284722966481	1031.119194492039	0
351	6267.270784768252	1031.34363961091	0
352	6267.270682464899	1031.343657248585	0
353	6274.075010027703	1033.256265009985	0
354	6274.074778786357	1033.256292081949	0
355	6275.065074050171	1033.444347627629	0
356	6274.075095453522	1033.256286511134	0
357	6275.065354390601	1033.444399112049	0
358	6275.065379506294	1033.444405206654	0
359	6276.031724823651	1033.734405678934	0
360	6276.031722737026	1033.734402624832	0
361	6277.006364832599	1033.989408694665	0
362	6276.031724824613	1033.734405679203	0
363	6277.006894551161	1033.989451055035	0
364	6277.006340654789	1033.989400140581	0
365	6287.801049491578	1036.556230057795	0
366	6287.801090473949	1036.556232396117	0
367	6288.791078886546	1036.745171934793	0
368	6287.800790710134	1036.55620053902	0
369	6288.791202880955	1036.745195191374	0
370	6288.790995819115	1036.745147131115	0
371	6335.14996853326	1039.270471187815	0
372	6335.149922346123	1039.270475135578	0
373	6336.144128495835	1039.110142445038	0
374	6335.150157196821	1039.270451305734	0
375	6336.144091583392	1039.11018891024	0
376	6336.143924687118	1039.110152631199	0
377	6343.12392724137	1037.962730798469	0
378	6343.123933059454	1037.962730541536	0
379	6345.104259395286	1037.58663278136	0
380	6343.124114771245	1037.962729360594	0
381	6345.104282963993	1037.586637653169	0
382	6345.104327405339	1037.586635492627	0
383	6377.295616470289	1034.990220021981	0
384	6377.295681332774	1034.990215015706	0
385	6378.301490082002	1034.975563989565	0
386	6377.295898371097	1034.990216946677	0
387	6378.301772774436	1034.975543643922	0
388	6378.301565653248	1034.97556698959	0
389	6396.298634245168	1037.428090164796	0
390	6396.298593222004	1037.428086598933	0
391	6397.299565063009	1037.493585449721	0
392	6396.298762813774	1037.428097923274	0
393	6397.300019149638	1037.493628839491	0
394	6397.300019150637	1037.493628839542	0
395	6427.467697817944	1040.229580803379	0
396	6427.468115308418	1040.229575983273	0
397	6428.464785128748	1040.0674199223	0
398	6427.467636032905	1040.229613446189	0
399	6428.464853880119	1040.067413262648	0
400	6428.464853879139	1040.06741326284	0
401	6444.398034167844	1037.251077322276	0
402	6444.398118603232	1037.251067768224	0
403	6445.382418090139	1037.050259330407	0
404	6444.398111834881	1037.251068881388	0
405	6445.382341338188	1037.05025649875	0
406	6445.382437705865	1037.05024731308	0
407	6459.249255446649	1034.349914225622	0
408	6459.249459666536	1034.349871266929	0
409	6460.22724619473	1034.115011103398	0
410	6459.25155594695	1034.349777684552	0
411	6460.227430187058	1034.114992288941	0
412	6460.22733742521	1034.11499771015	0
413	6495.965850149811	1035.198226643446	0
414	6495.878491057181	1035.199494916241	0
415	6495.977295738955	1035.198093697297	0
416	6495.965859987286	1035.198228216144	0
417	6554.722000547241	1032.859653792297	0
418	6554.721753323975	1032.859692257327	0
419	6555.679686136839	1032.54621947559	0
420	6554.722326750393	1032.859690794576	0
421	6555.680198436443	1032.546216453855	0
422	6555.680220230151	1032.5462045937	0
423	6572.588042886825	1029.764148241043	0
424	6572.58808500522	1029.764138247135	0
425	6573.576290121471	1029.572501147359	0
426	6572.588244726266	1029.764132861511	0
427	6573.576339735852	1029.572490851825	0
428	6573.576324846474	1029.572494751339	0
429	6582.345395586849	1027.193710381368	0
430	6582.345821013854	1027.193599806471	0
431	6583.338166314204	1027.014278684715	0
432	6582.345629383576	1027.193671690186	0
433	6583.338282680794	1027.01426625912	0
434	6583.338125131423	1027.014283481155	0
435	6596.244244485109	1024.694391860116	0
436	6596.243962635542	1024.694427579807	0
437	6597.226202846885	1024.446288058402	0
438	6596.244143225471	1024.694407469578	0
439	6597.227142576919	1024.446156521759	0
440	6597.226338710019	1024.446269050285	0
441	6600.223333008093	1023.956949400308	0
442	6600.220956395961	1023.957289132676	0
443	6601.165991316788	1023.598971814732	0
444	6600.223444919538	1023.956913569929	0
445	6601.166932905463	1023.598967604649	0
446	6601.165201656453	1023.599095449834	0
447	6604.586990212481	1023.235571512037	0
448	6604.587515038387	1023.235492019257	0
449	6604.664049512538	1023.234087982673	0
450	6604.630416090046	1023.235596958501	0
451	6699.413630340297	1031.268716735085	0
452	6699.4136003638	1031.268715558028	0
453	6700.401840443689	1031.075458288607	0
454	6699.414255401526	1031.268771871233	0
455	6700.402165249983	1031.075467504048	0
456	6700.401808208079	1031.075455649748	0
457	6701.364862806205	1030.779957586726	0
458	6701.364541337698	1030.779991501719	0
459	6702.332209594078	1030.502858199347	0
460	6701.365164447143	1030.78004615345	0
461	6702.332707408996	1030.50285352226	0
462	6702.332302566402	1030.502837496775	0
463	6794.31288301862	1019.148454672328	0
464	6794.312910458536	1019.148432862715	0
465	6795.31731119389	1019.246336367568	0
466	6794.313253742729	1019.148417933855	0
467	6795.317559398554	1019.246352077581	0
468	6795.31738759431	1019.246356742978	0
469	6799.264903141278	1020.04494252829	0
470	6799.264892396038	1020.044949776473	0
471	6800.235032033562	1020.313346798849	0
472	6799.264961241827	1020.044939461877	0
473	6800.23503082859	1020.313344745245	0
474	6800.234994327289	1020.31333790558	0
475	6832.155061616892	1024.92081420571	0
476	6832.154550806181	1024.920818364692	0
477	6833.136406163754	1025.143939917651	0
478	6832.155069529938	1024.920818248812	0
479	6833.136698150342	1025.143955757017	0
480	6833.136552878743	1025.143954339534	0
481	6908.288707119676	1017.452824312681	0
482	6908.28857855043	1017.4528429727	0
483	6909.202459526455	1017.035807370563	0
484	6908.288776229777	1017.452832585764	0
485	6909.202475240485	1017.035809325238	0
486	6909.202489851324	1017.035804786351	0
487	6937.112218111714	1013.311304451696	0
488	6937.112123266892	1013.311295512074	0
489	6938.107948475101	1013.178242947249	0
490	6937.112237320808	1013.31130111051	0
491	6938.108000619408	1013.178251142271	0
492	6938.108084748686	1013.178253252237	0
493	7027.314395726336	1021.075992897375	0
494	7027.313960902744	1021.075960262365	0
495	7028.260928944496	1020.737854520751	0
496	7027.314373965872	1021.075998501096	0
497	7028.261081897209	1020.737856087494	0
498	7028.260941763707	1020.737853425649	0
499	7114.343611788901	1013.774607466619	0
500	7114.343604100955	1013.774607476518	0
501	7115.299121685103	1013.46732356695	0
502	7114.343646671065	1013.774611041932	0
503	7115.299458510553	1013.467357365063	0
504	7115.299479366965	1013.467361473751	0
505	7148.470722641568	1012.393872393723	0
506	7148.470708261792	1012.393876887163	0
507	7149.437546824051	1012.670242673312	0
508	7148.470778116784	1012.393848039343	0
509	7149.437622383954	1012.670224447699	0
510	7149.43757540578	1012.670263580664	0
511	7165.098775038183	1016.382801155899	0
512	7165.09877037436	1016.382801264471	0
513	7166.052025050108	1016.694613715659	0
514	7165.099013363797	1016.382826282613	0
515	7166.052127110466	1016.694595926146	0
516	7166.052123607688	1016.694597485833	0
517	7335.529076767931	1022.248966791772	0
518	7335.529044699896	1022.248949592439	0
519	7336.445006508264	1022.661592178312	0
520	7335.529049116068	1022.248936607613	0
521	7336.445270754169	1022.661607738275	0
522	7336.445259676876	1022.661603023767	0
523	7448.484829649563	1032.83796150331	0
524	7448.484829648565	1032.837961503238	0
525	7449.448005752287	1033.124533712687	0
526	7448.484892613205	1032.837920448745	0
527	7449.448047233783	1033.124551670703	0
528	7449.448085852693	1033.124551460402	0
529	7503.45334274347	1027.519814107538	0
530	7503.453278038321	1027.519825493944	0
531	7504.408693855604	1027.207341827051	0
532	7503.45334274447	1027.519814107522	0
533	7504.408887024149	1027.207316288045	0
534	7504.408820169236	1027.207332733554	0
535	7507.338624588849	1026.489847937672	0
536	7507.338603684369	1026.489846693746	0
537	7508.311298328505	1026.243789433761	0
538	7507.338733817191	1026.489843092385	0
539	7508.31137126082	1026.24377222545	0
540	7508.311331560672	1026.243795589918	0
541	7585.58160782614	1031.205726578331	0
542	7585.581623791832	1031.205734450942	0
543	7586.54714525244	1030.928552920192	0
544	7585.581679471036	1031.205735275738	0
545	7586.547196689302	1030.92855670494	0
546	7586.547070566885	1030.928572025029	0
547	7622.497887073894	1026.207072173158	0
548	7622.497977783162	1026.207056550549	0
549	7623.501955980724	1026.180218592591	0
550	7622.49801424573	1026.207056906594	0
551	7623.50199473715	1026.180212057802	0
552	7623.502163357178	1026.180239081631	0
553	7677.318427063689	1034.474569685285	0
554	7677.318412997151	1034.474562795082	0
555	7678.273491969888	1034.78897768352	0
556	7677.318448305306	1034.474566222216	0
557	7678.273625443004	1034.788983687282	0
558	7678.273491970867	1034.788977683719	0
559	7760.687859772259	1032.552872644244	0
560	7760.68783598994	1032.552874056392	0
561	7761.693533254065	1032.557949940792	0
562	7760.687852736269	1032.552870007741	0
563	7761.693738715536	1032.557943089539	0
564	7761.693795430258	1032.557953442169	0
565	7762.677400338659	1032.780622425978	0
566	7762.677290587871	1032.780622498972	0
567	7763.671516828914	1032.925678400556	0
568	7762.677346832445	1032.780613808018	0
569	7763.671685212345	1032.925655583752	0
570	7763.671577262327	1032.925656592913	0
571	7779.691388252238	1034.776079576508	0
572	7779.691144407792	1034.776101946071	0
573	7780.692127115723	1034.911703604466	0
574	7779.691620368314	1034.776075388457	0
575	7780.692466083753	1034.911690673637	0
576	7780.692397501844	1034.911613678274	0
577	7802.702565888427	1031.691059655929	0
578	7802.702258185064	1031.691111874893	0
579	7803.655643364031	1031.366453790544	0
580	7802.702508239842	1031.691072325126	0
581	7803.657688557731	1031.366096755616	0
582	7803.657629876901	1031.366115580744	0
583	7822.43447361742	1026.589118159817	0
584	7822.434473616468	1026.589118160121	0
585	7822.454621220244	1026.582660364539	0
586	7822.448411759357	1026.584734281332	0
587	7837.769055376582	1025.21653829693	0
588	7837.768746482686	1025.216562954065	0
589	7838.758160392876	1025.060989176902	0
590	7837.768993554019	1025.216540120273	0
591	7838.760098311576	1025.060719973607	0
592	7838.759970814971	1025.060731962493	0
593	7855.589651509918	1021.929174957841	0
594	7855.589640511221	1021.929169678593	0
595	7856.598881320188	1021.903978970431	0
596	7855.589674253029	1021.929171787642	0
597	7856.602391779295	1021.903347450437	0
598	7856.600957827322	1021.903674535292	0
599	7863.03567740575	1020.804188716008	0
600	7862.986834098581	1020.813892766509	0
601	7863.086010708231	1020.794131852883	0
602	7863.03562839478	1020.804187159897	0
603	7907.779683364997	1022.224736971296	0
604	7907.77900040785	1022.224813601683	0
605	7908.752441545124	1022.486203036355	0
606	7907.779822611206	1022.224736511817	0
607	7908.752897890492	1022.486210393242	0
608	7908.752424364478	1022.486197198648	0
609	7925.372821804299	1026.625069326689	0
610	7925.372751079577	1026.625062112706	0
611	7926.358858534719	1026.826109850737	0
612	7925.373028431549	1026.625056022902	0
613	7926.359136315121	1026.826102326555	0
614	7926.358782007443	1026.82609817774	0
615	8080.983914115724	1032.082822078354	0
616	8080.983863936977	1032.082809128271	0
617	8081.964695565731	1032.304634953357	0
618	8080.983966746097	1032.082811231022	0
619	8081.964731983255	1032.304635972673	0
620	8081.964719626665	1032.304637406223	0
621	8157.052273059724	1025.852797816982	0
622	8157.051633786223	1025.852844612959	0
623	8158.000400023362	1025.520941810485	0
624	8157.052313589052	1025.852796374065	0
625	8158.00057640771	1025.52095595086	0
626	8158.00057070645	1025.520961784545	0
627	8174.634501459025	1021.560138925838	0
628	8174.634561405742	1021.560132647652	0
629	8175.631962305815	1021.442786862641	0
630	8174.634676737596	1021.560144520194	0
631	8175.632007346201	1021.442797131829	0
632	8175.632024652076	1021.442797117731	0
633	8262.042385493834	1021.149769110054	0
634	8262.042391430145	1021.149774317178	0
635	8263.037499600563	1021.284169433333	0
636	8262.042534373406	1021.149772788817	0
637	8263.037645104669	1021.284171502003	0
638	8263.037590865242	1021.28416700267	0
639	8298.058337058414	1024.807119360419	0
640	8298.058338786432	1024.807122396981	0
641	8299.05934036558	1024.742215703356	0
642	8298.058468083129	1024.80711964639	0
643	8299.059639076435	1024.74221704667	0
644	8299.059483080151	1024.742206974302	0
645	8390.863204170026	1013.254828864333	0
646	8390.863133841893	1013.254856527583	0
647	8391.772915500747	1012.827794454541	0
648	8390.863730166269	1013.254856770578	0
649	8391.772807234664	1012.827820994845	0
650	8391.772930970668	1012.827798835856	0
651	8479.032884393777	1005.69155197797	0
652	8479.032879364335	1005.691552970375	0
653	8480.019970049092	1005.506529939898	0
654	8479.032912067138	1005.691551376359	0
655	8480.020032685221	1005.506587149782	0
656	8480.020027694414	1005.506588404038	0
657	8528.788147247993	1012.942673649107	0
658	8528.788129694183	1012.942668651303	0
659	8529.737669372191	1013.267142015477	0
660	8528.788252269931	1012.942675967823	0
661	8529.737723503371	1013.267138299642	0
662	8529.737669371601	1013.26714201467	0
663	8691.975746029188	1024.107223855398	0
664	8691.975773263232	1024.107215710993	0
665	8692.943952398549	1024.379594150162	0
666	8691.975991497211	1024.107205358619	0
667	8692.944097915266	1024.379595347298	0
668	8692.94409238011	1024.379589225776	0
669	8745.210889022721	1024.008484260621	0
670	8745.210722089641	1024.008504049272	0
671	8746.183422400898	1024.259948974962	0
672	8745.210864177632	1024.008481185763	0
673	8746.183768502413	1024.259981235496	0
674	8746.183795181772	1024.259990164133	0
675	8758.936803051804	1027.133228722797	0
676	8758.936788180292	1027.133228434762	0
677	8759.926110066051	1027.302359961802	0
678	8758.936746794066	1027.133221133732	0
679	8759.92620675863	1027.302340703304	0
680	8759.926209489324	1027.302355473826	0
681	8760.927993680203	1027.406190642731	0
682	8760.927965980789	1027.406189697584	0
683	8761.928868820265	1027.288814070813	0
684	8760.928053243877	1027.406207316297	0
685	8761.929315247044	1027.288797138597	0
686	8761.929273094853	1027.28879994345	0
687	8813.914724245311	1021.531822507228	0
688	8813.914651329103	1021.531826148714	0
689	8814.855597482558	1021.179820890748	0
690	8813.914724246311	1021.531822507217	0
691	8814.855658999562	1021.179823803549	0
692	8814.855597481588	1021.17982089099	0
693	8870.115335278553	1018.541771570786	0
694	8870.115337480076	1018.541756207931	0
695	8871.103814454851	1018.715903233296	0
696	8870.115395494566	1018.54177079376	0
697	8871.10386294214	1018.715898235418	0
698	8871.10385007997	1018.715899228841	0
699	8877.958461353099	1020.383602345759	0
700	8877.958462267563	1020.383603219381	0
701	8878.935119115025	1020.627574257512	0
702	8877.95867201178	1020.383631035154	0
703	8878.935313321566	1020.627589349796	0
704	8878.935088242239	1020.62755735787	0
705	8910.962120514521	1024.054371698538	0
706	8910.962147019856	1024.05438195585	0
707	8911.960503030772	1023.918887711505	0
708	8910.962514002409	1024.054383667937	0
709	8911.960661433019	1023.91889469739	0
710	8911.960510430155	1023.918903405375	0
711	8961.182055993988	1019.742997083943	0
712	8961.182052305019	1019.742955318538	0
713	8962.182611289249	1019.842747653604	0
714	8961.182124421259	1019.742981004204	0
715	8962.18296012575	1019.84274659556	0
716	8962.182777490973	1019.84274162213	0
717	8982.087051207754	1022.8638547436	0
718	8982.087019367653	1022.86384665046	0
719	8983.022652518113	1023.227592938267	0
720	8982.087171665673	1022.863846059369	0
721	8983.022743596279	1023.227570673897	0
722	8983.022743595355	1023.22757067428	0
723	9028.773109543277	1030.095598763177	0
724	9028.773109543299	1030.095598764177	0
725	9029.764671813567	1030.259244068356	0
726	9028.773106898159	1030.095594463612	0
727	9029.764829494527	1030.259245143629	0
728	9029.764676811814	1030.259245150737	0
729	9063.869002801177	1032.621165247418	0
730	9063.868883360818	1032.621148458321	0
731	9064.808400383645	1032.982501238578	0
732	9063.868873478885	1032.621153330116	0
733	9064.808422404612	1032.982489302884	0
734	9064.8083413938	1032.982508062362	0
735	9112.949848959568	1037.53028804176	0
736	9112.949667192383	1037.530317725157	0
737	9113.922219295822	1037.270058676541	0
738	9112.949865306582	1037.530292496372	0
739	9113.922350649011	1037.270066341564	0
740	9113.922315633545	1037.270081429992	0
741	9116.878384631327	1036.63979871741	0
742	9116.878404715171	1036.639788108364	0
743	9117.87906323453	1036.535923455708	0
744	9116.878399645879	1036.639814389061	0
745	9117.879191065829	1036.535937333433	0
746	9117.879051684075	1036.535923888065	0
747	9129.794981374842	1034.473632515518	0
748	9129.794825812114	1034.473654447324	0
749	9130.764049392948	1034.197077920943	0
750	9129.794986155557	1034.47363468676	0
751	9130.7645137046	1034.197069149122	0
752	9130.764473064346	1034.197086990464	0
753	9140.630707609058	1032.141735609732	0
754	9140.630690910932	1032.141737216574	0
755	9141.583333701596	1031.816669829469	0
756	9140.630952889969	1032.141729085889	0
757	9141.583383520572	1031.816671982532	0
758	9141.583406292399	1031.816699757509	0
759	9242.041709276384	1040.113803661586	0
760	9242.041815331197	1040.113838266864	0
761	9243.023059635911	1040.323712268317	0
762	9242.04196384291	1040.113809054393	0
763	9243.023453976566	1040.323719054493	0
764	9243.023384316022	1040.323716936169	0
765	9267.130434817946	1042.683918660876	0
766	9267.130453743424	1042.683931395311	0
767	9268.131255673494	1042.556516812771	0
768	9267.130449921347	1042.683952632777	0
769	9268.131304301856	1042.556533064646	0
770	9268.131369605471	1042.556512030839	0
771	9323.098651328515	1034.943314241221	0
772	9323.098698442387	1034.943313778914	0
773	9324.056558255383	1034.642339976712	0
774	9323.098709458643	1034.943306884451	0
775	9324.056744130328	1034.642346153266	0
776	9324.056662996258	1034.642349368167	0
777	9328.932641099102	1033.317455419314	0
778	9328.932732296638	1033.317440708311	0
779	9329.874797946804	1032.962544366972	0
780	9328.933154315735	1033.317359141937	0
781	9329.875015668229	1032.962550084715	0
782	9329.874822346303	1032.962537489466	0
783	9346.407430767327	1028.368336767052	0
784	9346.407688220379	1028.368274434506	0
785	9347.355369492932	1028.034971233543	0
786	9346.407709597395	1028.368308923278	0
787	9347.355801239537	1028.034931985182	0
788	9347.355668620201	1028.0350018603	0
789	9399.472397258745	1021.655815907291	0
790	9399.472376234418	1021.655806257383	0
791	9400.43899585611	1021.378680429116	0
792	9399.472351037013	1021.655815424326	0
793	9400.439538856182	1021.378694806134	0
794	9400.438924260603	1021.378711940552	0
795	9464.994281265821	1022.641395564942	0
796	9464.994332584309	1022.641402364848	0
797	9465.974065465527	1022.875941921564	0
798	9464.994444622829	1022.641386879839	0
799	9465.974420827844	1022.875945647264	0
800	9465.974409215089	1022.875960538282	0
801	9489.69857775148	1027.807932247226	0
802	9489.699315329581	1027.807951665415	0
803	9490.661293420268	1028.097579823163	0
804	9489.698748582317	1027.807933617814	0
805	9490.661208436688	1028.097570806354	0
806	9490.661457944594	1028.097576593566	0
807	9537.717527307606	1029.732034066835	0
808	9537.712037057532	1029.731237791538	0
809	9537.768755819885	1029.739759264968	0
810	9537.727900734075	1029.733511148536	0
811	9649.01809392932	1033.981034619609	0
812	9649.016963907667	1033.981112245993	0
813	9649.692613894193	1033.232751337352	0
814	9649.018019778812	1033.981119900001	0
815	9649.693426324608	1033.232714400272	0
816	9649.692943892594	1033.232766441097	0
817	9763.145262928612	1023.214376442065	0
818	9763.145105778403	1023.214385238097	0
819	9764.065080080414	1022.806041308555	0
820	9763.145365400705	1023.214414575406	0
821	9764.066287675481	1022.806037035156	0
822	9764.06607158841	1022.806024226964	0
823	9765.027112870977	1022.489025783035	0
824	9765.027386654223	1022.489048376004	0
825	9765.888937678419	1021.959979364383	0
826	9765.030789909972	1022.489141641754	0
827	9765.889258304893	1021.959955739844	0
828	9765.88891753493	1021.960016568043	0
829	9930.197456791308	1026.366582045951	0
830	9930.196751606205	1026.366568574933	0
831	9930.912990522369	1025.635674627111	0
832	9930.197606177844	1026.366509341667	0
833	9930.917580605133	1025.636189402185	0
834	9930.914355192564	1025.635835131258	0
835	9944.995277418422	1021.707108122827	0
836	9944.985423553935	1021.706680762766	0
837	9945.881693316675	1021.209165952888	0
838	9944.995390102496	1021.707074619544	0
839	9945.889421014472	1021.209909671654	0
840	9945.879533185389	1021.208186249536	0
841	9978.270275299275	1034.624530260771	0
842	9978.290434109964	1034.626417717172	0
843	9978.407324940294	1034.635062949366	0
844	9978.396162800676	1034.632624580375	0
845	10038.57488293216	1019.328798284619	0
846	10038.56879887923	1019.329580267458	0
847	10039.24770813993	1020.07318684382	0
848	10038.57555296544	1019.328828674337	0
849	10039.25024664757	1020.073015954837	0
850	10039.24781712963	1020.073187056584	0
851	10088.73399502482	1019.888336095442	0
852	10088.73454766655	1019.888367238812	0
853	10089.66623882803	1020.302049832608	0
854	10088.73494287139	1019.888333682977	0
855	10089.66709252181	1020.302047326206	0
856	10089.66740506525	1020.302124624561	0
857	10094.52094846791	1021.940382361202	0
858	10094.52029401256	1021.940303718718	0
859	10095.42024528254	1022.42924560731	0
860	10094.52099815327	1021.940381302095	0
861	10095.42128252453	1022.429148969384	0
862	10095.42125118624	1022.429145592224	0
863	10139.5284550755	1030.953573274772	0
864	10139.52813011966	1030.95358980336	0
865	10140.48012588185	1031.30117991963	0
866	10139.5296653652	1030.953571659187	0
867	10140.4805343194	1031.30114469481	0
868	10140.48002555798	1031.301146199428	0
869	10165.79775593228	1030.01333884595	0
870	10165.79686871224	1030.013353271439	0
871	10166.76414743293	1029.699751210678	0
872	10165.79766469857	1030.013345522505	0
873	10166.76497393406	1029.699742150457	0
874	10166.76459412585	1029.699856164207	0
875	10216.21664547759	1025.621808604033	0
876	10216.21666655651	1025.621789074258	0
877	10217.21492208314	1025.76451055961	0
878	10216.21685379585	1025.621793263886	0
879	10217.21519338441	1025.764529053166	0
880	10217.21490280438	1025.764520448531	0
881	10227.10674922043	1027.950659929011	0
882	10227.10669102621	1027.950674524185	0
883	10228.09463874705	1028.151944416505	0
884	10227.10705133524	1027.950674524895	0
885	10228.09622207233	1028.152005406405	0
886	10228.09467776059	1028.151952798544	0
887	10265.22034683653	1032.287547845395	0
888	10265.21965131998	1032.287645746027	0
889	10266.21254489277	1032.067543525921	0
890	10265.22042996737	1032.287639954188	0
891	10266.21272265018	1032.067556751953	0
892	10266.21277490374	1032.067543771512	0
893	10281.20193151337	1030.057117705235	0
894	10281.20173759394	1030.057110458275	0
895	10282.18439556211	1029.835087269594	0
896	10281.20207715533	1030.057106338926	0
897	10282.1843830059	1029.835093518199	0
898	10282.18452222111	1029.835081698365	0
899	10308.36426167487	1027.575737736283	0
900	10308.3642367268	1027.575734453621	0
901	10309.3412784735	1027.82309028718	0
902	10308.36430803734	1027.575738924197	0
903	10309.34151319978	1027.823117310278	0
904	10309.34166483324	1027.82312340998	0
905	10326.21624083362	1031.084670434471	0
906	10326.21593477416	1031.08466297464	0
907	10327.1801124089	1031.375280063626	0
908	10326.21601876301	1031.084675891228	0
909	10327.18039919908	1031.375277332924	0
910	10327.18036882342	1031.375271514478	0
911	10365.85050628832	1038.702285890553	0
912	10365.85052125617	1038.702295980416	0
913	10366.85191050563	1038.80449267615	0
914	10365.85086177937	1038.702331777948	0
915	10366.85232184552	1038.804524417233	0
916	10366.85189063173	1038.804492415476	0
917	10376.90746768553	1039.621349892296	0
918	10376.90741555233	1039.62140183533	0
919	10377.91527416882	1039.70464870192	0
920	10376.90780366942	1039.621378060662	0
921	10377.91532211736	1039.704641243634	0
922	10377.91526804947	1039.704649351862	0
923	10396.82195626513	1036.152345661236	0
924	10396.8217502408	1036.152336031464	0
925	10397.8265022306	1036.187833976373	0
926	10396.82178087256	1036.152357764491	0
927	10397.82639884325	1036.187848782762	0
928	10397.8264543443	1036.187836596752	0
929	10446.9886800554	1040.816826041961	0
930	10446.98854169573	1040.816820730397	0
931	10449.99328500822	1041.22971250668	0
932	10446.98864466561	1040.816827709874	0
933	10449.99360332903	1041.229737428344	0
934	10449.99329839128	1041.229710813574	0
935	10550.64159072471	1037.833200051842	0
936	10550.64141274066	1037.833231541168	0
937	10551.63864722731	1037.679640079243	0
938	10550.64154429752	1037.833202728025	0
939	10551.63822810562	1037.67972515546	0
940	10551.63872143551	1037.679617334095	0
941	10569.49578008343	1033.712820718989	0
942	10569.49579650572	1033.712819765802	0
943	10570.48282779869	1033.925374071847	0
944	10569.49819212891	1033.712250867857	0
945	10570.48304022379	1033.925357420404	0
946	10570.48305124522	1033.925357195668	0
947	10578.15879171517	1031.282688196201	0
948	10578.13783935564	1031.287490439628	0
949	10578.20825091672	1031.271318988974	0
950	10578.17346920228	1031.279294484442	0
951	10648.80219550389	1037.784928450556	0
952	10648.80073577205	1037.784958695529	0
953	10649.55049155217	1037.103869464805	0
954	10648.80277998711	1037.785048628537	0
955	10649.55195274648	1037.103900015532	0
956	10649.55099281455	1037.103932341726	0
957	10702.47981554995	1029.457205554965	0
958	10702.47981758101	1029.457224936597	0
959	10703.40648901988	1029.07011001983	0
960	10702.48047591735	1029.457212866338	0
961	10703.40670084604	1029.070130222898	0
962	10703.40653366587	1029.070109307177	0
963	10830.99114507549	1027.062135189587	0
964	10830.99085415269	1027.062117468257	0
965	10831.91509401773	1027.457839957942	0
966	10830.99117950847	1027.062134614835	0
967	10831.91524709675	1027.45784588731	0
968	10831.91508893447	1027.457834877564	0
969	10834.70413762308	1028.599445178565	0
970	10834.70380054934	1028.599448773835	0
971	10835.62471194931	1028.995783461152	0
972	10834.70427420016	1028.599458088248	0
973	10835.62495646363	1028.995777813235	0
974	10835.62496126671	1028.995793086906	0
975	10936.86932627551	1037.628916638238	0
976	10936.86930929773	1037.628912607478	0
977	10937.83865049298	1037.363116551256	0
978	10936.86939883549	1037.628914903148	0
979	10937.83909518894	1037.363131756944	0
980	10937.83877021133	1037.363115911224	0
981	11091.76799033719	1020.730798514067	0
982	11091.76800019105	1020.730802920358	0
983	11092.73296905494	1021.009010959664	0
984	11091.76824595593	1020.730788715039	0
985	11092.73342735221	1021.009016503168	0
986	11092.73348584665	1021.009021878751	0
987	11107.64153971998	1023.41854071456	0
988	11107.64134019508	1023.418545175376	0
989	11108.63682242492	1023.26265422528	0
990	11107.64154668997	1023.418540548514	0
991	11108.63704961315	1023.262652327115	0
992	11108.63681656149	1023.26265406931	0
993	11196.05311336137	1016.97755575355	0
994	11196.05311336038	1016.977555753636	0
995	11197.04743073666	1017.132067544331	0
996	11196.05336770349	1016.977543799674	0
997	11197.04756580929	1017.132062256076	0
998	11197.04742947176	1017.132063253639	0
999	11215.86751624962	1020.755798713187	0
1000	11215.86749532084	1020.755796715313	0
1001	11216.85157188269	1020.975115061442	0
1002	11215.86754712357	1020.755796850038	0
1003	11216.85162530344	1020.975062019225	0
1004	11216.8516857127	1020.975140894849	0
1005	11222.42965965964	1023.319064559453	0
1006	11222.42945858082	1023.31916832654	0
1007	11223.37713489587	1023.655663083502	0
1008	11222.43003572649	1023.319160960333	0
1009	11223.37779839276	1023.655372896386	0
1010	11223.37779839367	1023.655372896801	0
1011	11259.18008993246	1029.397395233897	0
1012	11259.18013306599	1029.397431185246	0
1013	11260.18486148552	1029.443522009674	0
1014	11259.18029388386	1029.397400689668	0
1015	11260.18492229695	1029.443517987747	0
1016	11260.18494271473	1029.443517280137	0
1017	11378.79956672156	1024.921158715074	0
1018	11378.79945508404	1024.92114841593	0
1019	11379.75518037121	1025.23351668619	0
1020	11378.79948762895	1024.921162568906	0
1021	11379.75524395698	1025.233516515325	0
1022	11379.75530636136	1025.23351731834	0
1023	11455.95313067007	1031.61016114745	0
1024	11455.95330682477	1031.610167603524	0
1025	11456.93307455566	1031.379099259686	0
1026	11455.95320532597	1031.610169240675	0
1027	11456.93317283764	1031.379103059413	0
1028	11456.93307521402	1031.379107043301	0
1029	11458.85991107674	1030.79886428719	0
1030	11458.86002096176	1030.798817308286	0
1031	11459.84415719348	1030.590627456552	0
1032	11458.85991621735	1030.798860380838	0
1033	11459.84433371104	1030.590618190658	0
1034	11459.84418565436	1030.590619644607	0
1035	11484.42110602428	1025.099907581579	0
1036	11484.42099634248	1025.09990412868	0
1037	11485.41347619935	1024.940261264273	0
1038	11484.42114779549	1025.099914651903	0
1039	11485.41362089454	1024.940246494115	0
1040	11485.41362555641	1024.940245871001	0
1041	11525.66512447523	1025.850500767754	0
1042	11525.66512447424	1025.850500767863	0
1043	11526.64439659917	1025.624003738662	0
1044	11525.66529188067	1025.850492530684	0
1045	11526.64448366972	1025.623998947517	0
1046	11526.64447499132	1025.623999635956	0
1047	11602.64970100872	1018.04646531661	0
1048	11602.64952533193	1018.046478403182	0
1049	11604.64727544515	1017.767711672411	0
1050	11602.64972118086	1018.046464667418	0
1051	11604.64736428388	1017.767711026996	0
1052	11604.64729710946	1017.767718525787	0
1053	11611.66935452141	1018.539688183315	0
1054	11611.66936476719	1018.539687312149	0
1055	11612.64013988377	1018.802788296935	0
1056	11611.66938016533	1018.539689374389	0
1057	11612.64041715578	1018.802797065529	0
1058	11612.64017472938	1018.802798752012	0
1059	11621.3318491734	1021.36196436994	0
1060	11621.33174923478	1021.36195494444	0
1061	11623.2505873341	1021.954316618016	0
1062	11621.33183441269	1021.361964368712	0
1063	11623.25068134636	1021.954303018143	0
1064	11623.25071985737	1021.954313288803	0
1065	11755.81457612515	1020.94441404647	0
1066	11755.81454458711	1020.944415196357	0
1067	11756.80065050448	1020.752292296356	0
1068	11755.8146246016	1020.94441178309	0
1069	11756.80064934062	1020.752289408197	0
1070	11756.80067619793	1020.752285747757	0
1071	11764.7672278534	1019.673383885668	0
1072	11764.76719696838	1019.673384056421	0
1073	11766.72784602406	1019.232995120293	0
1074	11764.76728977986	1019.673377763356	0
1075	11766.7280490424	1019.233018318623	0
1076	11766.72798130946	1019.233017787363	0
1077	11811.65480520511	1024.637715644677	0
1078	11811.65480757379	1024.63772100748	0
1079	11812.61453244225	1024.932930514339	0
1080	11811.65481695355	1024.637717557224	0
1081	11812.61467441566	1024.93293294484	0
1082	11812.61469895917	1024.932934777442	0
1083	11890.75596042752	1030.921740536574	0
1084	11890.75594641905	1030.921739513816	0
1085	11891.72333635775	1030.654974417438	0
1086	11890.75619705196	1030.921729867663	0
1087	11891.72359147154	1030.65500757797	0
1088	11891.72366171961	1030.655009263402	0
1089	11910.64405343075	1027.852162102048	0
1090	11910.64408927161	1027.852161896443	0
1091	11911.64313250773	1027.951862404127	0
1092	11910.64385378647	1027.852202672417	0
1093	11911.64317438083	1027.951869326752	0
1094	11911.64320535893	1027.951874713322	0
1095	11991.42084381791	1038.854507648726	0
1096	11991.42082492105	1038.854505117316	0
1097	11992.38978082536	1039.122311456622	0
1098	11991.42094142419	1038.85449709036	0
1099	11992.38984905273	1039.122307183819	0
1100	11992.38985139374	1039.122297484151	0
1101	12104.87290795271	1033.539512397226	0
1102	12104.87282116464	1033.539517374438	0
1103	12105.85102220402	1033.307611845304	0
1104	12104.87287461322	1033.539517077946	0
1105	12105.85103849987	1033.307610193718	0
1106	12105.85101998525	1033.307611219227	0
1107	12128.46270125339	1028.345787264679	0
1108	12128.46269242421	1028.345767488478	0
1109	12129.4553068377	1028.192005759408	0
1110	12128.46269467125	1028.34578320706	0
1111	12129.45529022903	1028.192009299604	0
1112	12129.45544240696	1028.192017273783	0
1113	12178.72353381806	1030.343505819963	0
1114	12178.72353381706	1030.34350581996	0
1115	12179.69828575754	1030.587085648144	0
1116	12178.72367046662	1030.343508637168	0
1117	12179.69831041156	1030.587078353721	0
1118	12179.69835640531	1030.587084627319	0
1119	12222.51166912782	1036.902081751458	0
1120	12222.51172512378	1036.902094702292	0
1121	12224.51827165614	1037.020212120997	0
1122	12222.51186501071	1036.902095203631	0
1123	12224.51823631259	1037.020216176584	0
1124	12224.5183430359	1037.020217128096	0
1125	12333.67824341123	1027.785588674506	0
1126	12333.67793333938	1027.785585097338	0
1127	12334.64381354324	1027.503472202989	0
1128	12333.67824738321	1027.785588736905	0
1129	12334.64375296454	1027.503476929764	0
1130	12334.6438337389	1027.503474526065	0
1131	12339.60448322743	1026.677567674946	0
1132	12339.60423004016	1026.677574727765	0
1133	12340.59295252955	1026.503193974092	0
1134	12339.60439134171	1026.677567278442	0
1135	12340.59312905492	1026.503184455977	0
1136	12340.59305304683	1026.503186130661	0
1137	12365.70236232073	1028.526850617756	0
1138	12365.70248347506	1028.526864026855	0
1139	12366.68789727403	1028.318607045985	0
1140	12365.70252186983	1028.526876834798	0
1141	12366.68789780133	1028.31861136775	0
1142	12366.6879425233	1028.318599495552	0
1143	12389.57437666655	1024.872257722739	0
1144	12389.57444808727	1024.872244986582	0
1145	12390.54319784485	1024.599376664982	0
1146	12389.5743955197	1024.872255011898	0
1147	12390.5432689028	1024.599368191141	0
1148	12390.54326994256	1024.599368148608	0
1149	12398.42807326833	1022.959351611786	0
1150	12398.42809260335	1022.959338096838	0
1151	12399.42461272532	1022.82868052935	0
1152	12398.42813991509	1022.959337498833	0
1153	12399.42481533654	1022.828668283227	0
1154	12399.42463947834	1022.828682766261	0
1155	12460.14441285647	1032.002455890801	0
1156	12460.14440072771	1032.002461985288	0
1157	12461.10526335694	1032.290318279609	0
1158	12460.14447157657	1032.002451706062	0
1159	12461.10526221084	1032.29032468001	0
1160	12461.10530173045	1032.290300522411	0
1161	12612.60752195137	1033.081791445644	0
1162	12612.60750301311	1033.081790371883	0
1163	12613.57842698089	1032.82924553004	0
1164	12612.60762822289	1033.081807058445	0
1165	12613.57850303953	1032.829240711794	0
1166	12613.57849569364	1032.82924067041	0
1167	12651.66954908951	1029.610904988179	0
1168	12651.66958135024	1029.610902194724	0
1169	12653.65138772316	1029.948685856203	0
1170	12651.66968094376	1029.610894765834	0
1171	12653.65136308407	1029.948688498052	0
1172	12653.65141218897	1029.948689460293	0
1173	12684.33945401606	1035.270692036403	0
1174	12684.33947524758	1035.270698553043	0
1175	12685.32114860189	1035.478795341997	0
1176	12684.33957738231	1035.270703347344	0
1177	12685.32124895538	1035.478803588215	0
1178	12685.32124168619	1035.478803497804	0
1179	12754.11551778154	1043.755765055877	0
1180	12754.11552330129	1043.755759423059	0
1181	12755.07288454122	1044.053441897139	0
1182	12754.11558774689	1043.755765956011	0
1183	12755.07289329612	1044.053448669681	0
1184	12755.07296345933	1044.053444544513	0
1185	12939.3099021787	1033.312869910493	0
1186	12939.30988281204	1033.312852432836	0
1187	12940.29915072578	1033.469768129188	0
1188	12939.30990594579	1033.312870696158	0
1189	12940.29923923569	1033.46977550465	0
1190	12940.29918568041	1033.469772671106	0
1191	13067.40106168588	1039.460915673586	0
1192	13067.40107157363	1039.460916671819	0
1193	13068.39802060197	1039.557342379291	0
1194	13067.40107446819	1039.460916006084	0
1195	13068.39802929206	1039.557337576447	0
1196	13068.39801136827	1039.557341734147	0
1197	13255.73279865701	1043.190293957375	0
1198	13255.73278768215	1043.190297836703	0
1199	13256.677134948	1042.856265979107	0
1200	13255.7328543676	1043.190290349146	0
1201	13256.67722907863	1042.856277857192	0
1202	13256.67721150925	1042.856288187063	0
1203	13528.51934120205	1022.788827007848	0
1204	13528.51938217777	1022.788823708264	0
1205	13529.46362504778	1022.453267154601	0
1206	13528.51937663948	1022.788823296243	0
1207	13529.46365408508	1022.453276164836	0
1208	13529.46364012308	1022.453287579327	0
1209	13613.69653744243	1023.339061247978	0
1210	13613.69655610308	1023.33905833157	0
1211	13614.63236747059	1022.982017113545	0
1212	13613.69653175768	1023.339063727489	0
1213	13614.63237209419	1022.982018559039	0
1214	13614.6323325949	1022.982020701341	0
1215	13665.02386959908	1014.138847464466	0
1216	13665.02378669075	1014.13885133694	0
1217	13665.97274388858	1013.815633504178	0
1218	13665.02387438127	1014.13884647398	0
1219	13665.97282499523	1013.815624101048	0
1220	13665.97276200581	1013.815630138879	0
1221	13786.25743056475	1015.969189307272	0
1222	13786.25741548666	1015.969183131048	0
1223	13787.20787353329	1016.283199991889	0
1224	13786.25740064522	1015.969187454253	0
1225	13787.20785494992	1016.283196210432	0
1226	13787.20784126517	1016.283195837848	0
1227	13910.32730974546	1021.743333210914	0
1228	13910.32727742251	1021.743338678313	0
1229	13911.24151793273	1021.336359747803	0
1230	13910.32729674197	1021.743331597449	0
1231	13911.24152381064	1021.33635734148	0
1232	13911.24152196327	1021.336358163681	0
1233	14063.00071297379	1000	0
