idx	X	Y	component
0	1000	1008.215081270535	0
1	1001.962586765403	1008.604717080956	0
2	1001.962581795907	1008.60471704732	0
3	1008.892174139726	1009.639948995396	0
4	1008.892233797095	1009.639954491479	0
5	1009.873465237824	1009.839152885314	0
6	1008.89218549461	1009.639949207622	0
7	1009.873466799129	1009.839154382604	0
8	1009.873465238824	1009.839152885295	0
9	1041.80674089928	1012.709744402014	0
10	1041.806697554342	1012.709744887378	0
11	1042.799141773522	1012.848584316835	0
12	1041.806728865453	1012.709742341572	0
13	1042.799209959941	1012.848584931409	0
14	1042.799228779463	1012.848586478751	0
15	1045.79893929224	1013.06416433568	0
16	1045.79895874052	1013.064165587568	0
17	1046.800603642036	1013.093537802883	0
18	1045.798973925036	1013.064169023453	0
19	1046.800570280908	1013.093552075357	0
20	1046.800601171752	1013.093537347585	0
21	1073.795795754336	1011.191779759955	0
22	1073.795785081453	1011.191779110207	0
23	1074.788472835035	1011.057081003697	0
24	1073.795795755336	1011.19177975994	0
25	1074.788523911002	1011.057076461549	0
26	1074.788526886774	1011.057075707044	0
27	1076.765511108609	1010.722391981419	0
28	1074.788604040299	1011.057075479141	0
29	1076.76554880645	1010.722390363714	0
30	1076.765546651442	1010.722391027633	0
31	1096.700051093661	1008.625942829993	0
32	1096.700018098591	1008.62594404403	0
33	1097.694253856976	1008.497088716603	0
34	1096.700061605999	1008.625942500113	0
35	1097.694226397864	1008.497092150323	0
36	1097.694220174907	1008.497093823081	0
37	1113.644920342311	1006.730537204878	0
38	1113.644878709953	1006.730537075943	0
39	1114.639439277075	1006.60239137778	0
40	1113.644917155648	1006.730537210302	0
41	1114.639479458547	1006.602391756255	0
42	1114.639439278074	1006.602391377819	0
43	1117.644388061172	1006.400290016952	0
44	1117.644389194799	1006.400294303225	0
45	1118.648277992327	1006.388146074607	0
46	1117.644285560252	1006.400277681806	0
47	1118.648060706983	1006.388094168797	0
48	1118.648284812322	1006.38814801359	0
49	1120.654329133086	1006.490018630448	0
50	1120.654134620501	1006.490003800998	0
51	1122.645974657732	1006.738521650677	0
52	1120.654329134084	1006.490018630496	0
53	1122.646153018498	1006.738530337999	0
54	1122.646152974521	1006.73853033785	0
55	1126.645655062914	1007.102484454457	0
56	1126.645677450168	1007.102487491887	0
57	1127.635367953871	1007.275555697151	0
58	1126.645735040479	1007.102481192829	0
59	1127.635495440247	1007.275563989973	0
60	1127.635368585393	1007.275554173088	0
61	1153.713581316557	1008.715577985456	0
62	1153.714084144842	1008.715707806463	0
63	1154.69904227473	1008.958932690469	0
64	1153.713666041225	1008.715577521276	0
65	1154.698846897341	1008.958932314952	0
66	1154.698975449602	1008.958920321871	0
67	1155.704449625248	1009.042082189737	0
68	1154.700979487387	1008.959364654004	0
69	1155.707881755628	1009.042980448243	0
70	1155.704085640669	1009.041898974559	0
71	1157.794418427917	1009.818408296349	0
72	1157.797513557069	1009.819901984191	0
73	1157.841983782399	1009.822469647756	0
74	1157.823823563998	1009.819197343955	0
75	1158.968766330538	1009.50347022592	0
76	1158.966768187113	1009.503640152666	0
77	1159.984108192243	1009.607154814228	0
78	1158.968417601564	1009.503724443994	0
79	1159.985334569491	1009.607113976122	0
80	1159.984809674263	1009.607105741451	0
81	1160.998365754493	1009.699146716486	0
82	1160.99883947757	1009.699138538363	0
83	1162.010871168182	1009.739162371441	0
84	1160.998811443448	1009.699134699443	0
85	1162.010856543563	1009.739150931789	0
86	1162.010894532219	1009.73916349638	0
87	1164.025002364107	1009.854390004646	0
88	1164.025069323461	1009.854390133357	0
89	1165.031952698555	1009.884637783235	0
90	1164.025039704795	1009.854379111581	0
91	1165.031865576326	1009.884624266662	0
92	1165.031910284672	1009.884646252926	0
93	1190.126420134603	1007.061395048571	0
94	1190.108706433193	1007.060366640983	0
95	1190.153833952179	1007.062345797648	0
96	1190.13261180815	1007.061232599542	0
97	1195.286138869807	1007.163253327249	0
98	1195.288326575095	1007.163195382754	0
99	1196.265815377381	1007.362559300964	0
100	1195.286297371267	1007.163250035731	0
101	1196.265297993732	1007.36254870834	0
102	1196.265749714249	1007.362555092368	0
103	1281.432648769315	1009.696454503363	0
104	1281.432683674794	1009.696454756846	0
105	1282.433603857837	1009.65337340922	0
106	1281.432846555591	1009.696480315313	0
107	1282.43380400902	1009.653400056534	0
108	1282.433614913296	1009.653373080374	0
109	1318.368940131213	1006.422082079639	0
110	1318.368930059544	1006.422082807863	0
111	1319.369539889725	1006.382309922504	0
112	1318.368957148848	1006.422080328835	0
113	1319.369553429385	1006.382305409407	0
114	1319.369608581599	1006.382307375083	0
115	1326.384575058419	1006.326401245508	0
116	1326.384564795324	1006.326403070498	0
117	1327.373429741238	1006.160710444066	0
118	1327.373401703538	1006.160710531372	0
119	1328.373797461506	1006.100840444151	0
120	1326.384566617433	1006.326407173379	0
121	1327.373436968472	1006.160699276015	0
122	1327.373422851225	1006.160711630975	0
123	1328.373724183321	1006.100846776466	0
124	1328.373716928806	1006.100846408643	0
125	1373.344065660415	1003.005718567958	0
126	1373.344065881506	1003.005717952072	0
127	1374.345189471071	1003.039923702449	0
128	1373.343992993088	1003.005716303162	0
129	1374.345190431068	1003.03991773597	0
130	1374.345179737523	1003.039924174102	0
131	1471.509191295514	1004.00000236407	0
132	1471.509214722304	1004.000002993694	0
133	1472.506453454055	1004.09514548797	0
134	1471.50920617041	1003.999983684941	0
135	1472.506456995818	1004.095138603624	0
136	1472.50645774638	1004.095145290418	0
137	1475.488490397559	1004.474721501553	0
138	1475.488493435098	1004.474721513653	0
139	1476.489717064934	1004.517407751067	0
140	1475.488471350742	1004.474719172732	0
141	1476.489709689144	1004.517387336163	0
142	1476.489727374309	1004.517409235136	0
143	1487.429539293654	1005.871280389549	0
144	1487.429610547187	1005.871288683793	0
145	1488.424096184384	1005.99483117687	0
146	1487.429676644337	1005.871298272009	0
147	1488.424095976323	1005.994835196124	0
148	1488.42411356621	1005.99483730551	0
149	1490.403714780112	1006.309231131717	0
150	1490.403724841596	1006.309232735272	0
151	1491.39429726804	1006.462609717859	0
152	1490.403764332749	1006.309237725921	0
153	1491.394273754038	1006.462606051484	0
154	1491.394303670682	1006.462610726076	0
155	1500.347030305859	1007.587662685279	0
156	1500.347014670356	1007.587663849304	0
157	1501.338537994774	1007.737294767825	0
158	1500.347054165112	1007.587665261008	0
159	1501.338509645135	1007.737275907942	0
160	1501.338521167631	1007.73726631708	0
161	1521.364303243498	1008.804681890622	0
162	1521.364254594404	1008.80468304017	0
163	1522.365035748273	1008.866099361009	0
164	1521.364295747049	1008.804681430518	0
165	1522.365034867133	1008.866097884533	0
166	1522.365089925625	1008.866095717542	0
167	1534.394712775071	1008.531099843925	0
168	1534.394704599756	1008.531100072587	0
169	1535.390731945873	1008.417257707891	0
170	1534.394724588974	1008.531096862166	0
171	1535.390699224811	1008.417259545564	0
172	1535.390739859569	1008.417256983655	0
173	1560.385840554613	1006.542351324881	0
174	1560.385881441284	1006.542349432142	0
175	1561.387860495533	1006.515794455666	0
176	1560.385887090915	1006.542345988056	0
177	1561.387866647789	1006.515794649198	0
178	1561.387885194563	1006.515792081508	0
179	1597.31933250019	1003.10358066142	0
180	1597.319281311168	1003.103572020713	0
181	1598.31267575761	1002.967860622306	0
182	1597.319416831647	1003.103573996853	0
183	1598.312823205314	1002.967860994054	0
184	1598.312830265957	1002.967860494152	0
185	1635.359128833022	1001.026842910341	0
186	1635.359084022741	1001.026835073262	0
187	1636.355655317877	1000.918303919944	0
188	1635.359120485402	1001.026842898847	0
189	1636.355722962417	1000.918311849155	0
190	1636.355669598824	1000.918314749673	0
191	1703.433325981985	1004.552785949613	0
192	1703.433323194629	1004.552783329827	0
193	1704.422781511732	1004.711024678856	0
194	1703.433341666746	1004.552787558776	0
195	1704.422789282853	1004.711028524771	0
196	1704.422789283852	1004.711028524811	0
197	1706.406696738354	1004.999456415225	0
198	1706.406736969604	1004.999458101831	0
199	1707.392323807852	1005.179849842693	0
200	1706.406719002866	1004.999455275339	0
201	1707.392414567368	1005.179851288506	0
202	1707.392304871428	1005.179847869925	0
203	1728.325572077274	1007.378787176774	0
204	1728.325590045355	1007.378792578294	0
205	1729.317036423398	1007.523381274317	0
206	1728.325586202926	1007.378789616379	0
207	1729.317069057877	1007.523381827122	0
208	1729.317072088828	1007.523382499774	0
209	1730.311128489403	1007.647820489918	0
210	1730.3111337379	1007.647817623419	0
211	1731.306230934641	1007.767439161453	0
212	1730.311121078086	1007.647820487423	0
213	1731.306245400899	1007.767518273577	0
214	1731.306234104587	1007.767438012201	0
215	1796.418016803619	1006.506225774961	0
216	1796.417991515443	1006.506228914653	0
217	1797.406139728871	1006.33942824079	0
218	1796.418040979719	1006.506227097194	0
219	1797.406142378417	1006.339430443168	0
220	1797.406142379416	1006.33943044312	0
221	1806.395556341841	1005.589153370804	0
222	1806.395561797876	1005.589149450314	0
223	1807.39301861587	1005.489745718474	0
224	1806.395554255183	1005.589153380358	0
225	1807.393042046259	1005.489754780897	0
226	1807.393026042553	1005.489746010266	0
227	1815.409375546963	1005.7137769005	0
228	1815.409407574089	1005.713777944959	0
229	1816.410457255351	1005.68383494755	0
230	1815.409408662206	1005.713777655747	0
231	1816.410482467099	1005.683823020447	0
232	1816.410455273839	1005.683833909297	0
233	1826.39122974682	1006.60934524009	0
234	1826.391258456888	1006.609347372667	0
235	1827.380566331047	1006.76737040192	0
236	1826.391272845201	1006.609345406359	0
237	1827.380598826629	1006.767367973874	0
238	1827.380572094606	1006.767369191891	0
239	1878.476445384706	1006.286709181442	0
240	1878.476429481236	1006.286710890768	0
241	1879.468895102834	1006.145935696862	0
242	1878.476443202102	1006.286709202762	0
243	1879.468914725872	1006.145936430688	0
244	1879.468921405736	1006.145936243845	0
245	1910.532354389202	1005.159299255384	0
246	1910.53239212913	1005.159286081441	0
247	1911.531231658214	1005.249008354158	0
248	1910.532407557073	1005.159298725185	0
249	1911.531337473726	1005.249015910355	0
250	1911.531350323967	1005.2490183754	0
251	1912.526703687333	1005.372590446746	0
252	1911.531439047407	1005.248929009508	0
253	1912.526717883085	1005.37257131068	0
254	1912.526717175493	1005.372591795361	0
255	1922.439933663018	1006.894048954861	0
256	1922.439943798843	1006.894050097604	0
257	1923.427377755197	1007.071134041801	0
258	1922.439954454523	1006.894049402751	0
259	1923.427379229836	1007.071123653441	0
260	1923.427374656675	1007.071123669482	0
261	1936.363033159264	1008.727131083277	0
262	1936.363137230989	1008.72714629166	0
263	1937.353975873043	1008.875871440478	0
264	1936.363087169459	1008.727139264163	0
265	1937.35400446964	1008.875859696417	0
266	1937.353958842226	1008.875866547726	0
267	2000.793553808787	1011.719025274361	0
268	2000.763555253617	1011.716017531036	0
269	2000.815875402272	1011.721246992564	0
270	2000.815852888577	1011.72124347859	0
271	2037.210125265035	1013.194669628124	0
272	2037.209805646252	1013.194652247687	0
273	2038.114348627277	1013.620964007334	0
274	2037.210319212082	1013.194679439583	0
275	2038.11656850874	1013.621194333671	0
276	2038.115704974389	1013.621057857779	0
277	2050.323184511157	1015.825765404302	0
278	2050.311565399978	1015.825089123737	0
279	2050.329456982657	1015.826292043077	0
280	2050.323881492264	1015.825822764779	0
281	2064.623389343248	1014.774645931604	0
282	2064.623350001887	1014.77463407614	0
283	2065.6196983653	1014.859034939199	0
284	2064.623389342253	1014.774645931509	0
285	2065.618494704006	1014.859054366698	0
286	2065.61836241828	1014.8590861488	0
287	2077.661803072496	1014.781918405758	0
288	2077.661879289249	1014.781922071185	0
289	2078.65646166329	1014.65970796372	0
290	2077.661653296526	1014.781928673813	0
291	2078.656498929357	1014.659705610458	0
292	2078.656499818445	1014.659705599768	0
293	2132.673919380991	1010.8712984386	0
294	2132.67391938001	1010.871298438793	0
295	2133.659314791963	1010.683236483812	0
296	2132.673962863732	1010.87129352749	0
297	2133.659319647668	1010.683239721589	0
298	2133.659363453942	1010.683237658391	0
299	2136.639245742635	1010.279594949786	0
300	2136.639452330275	1010.279579823709	0
301	2137.625700430536	1010.099787026727	0
302	2136.639245741639	1010.279594949861	0
303	2137.625574893434	1010.099807985637	0
304	2137.625663642115	1010.099802251522	0
305	2175.669201628707	1008.412250601766	0
306	2175.669213881623	1008.412247823682	0
307	2176.659237991974	1008.257358575438	0
308	2175.669239235382	1008.412248622847	0
309	2176.659296342095	1008.257350202956	0
310	2176.659284407405	1008.25735859689	0
311	2195.681655754169	1007.363830318012	0
312	2195.681650011471	1007.363825769054	0
313	2196.684776763484	1007.349170227471	0
314	2195.681687466958	1007.363828743978	0
315	2196.684785289074	1007.349183953835	0
316	2196.684747535067	1007.349172015013	0
317	2199.678885845336	1007.654453048715	0
318	2199.67885008637	1007.654454580403	0
319	2200.673976467537	1007.771178145693	0
320	2199.678888838981	1007.654453055203	0
321	2200.67406439923	1007.771171589573	0
322	2200.674075061335	1007.771174118	0
323	2237.762425215952	1008.023714735355	0
324	2237.762425216949	1008.023714735435	0
325	2238.762889668976	1008.096374733884	0
326	2237.762385752887	1008.023666385849	0
327	2238.762963895442	1008.096351812436	0
328	2238.762921992316	1008.096375111151	0
329	2239.748245687256	1008.282286909148	0
330	2239.748216963542	1008.282283956045	0
331	2240.739928103713	1008.4286093276	0
332	2239.748260012097	1008.282286861048	0
333	2240.739923689995	1008.428606745684	0
334	2240.739938408135	1008.428614914856	0
335	2241.729937918105	1008.585424226105	0
336	2241.729952571604	1008.585423535412	0
337	2242.710163285662	1008.797290102275	0
338	2241.729991758463	1008.585430217628	0
339	2242.710204365094	1008.797293012951	0
340	2242.710154621904	1008.797290875168	0
341	2243.700462987718	1008.951966399135	0
342	2243.700451294749	1008.951972424252	0
343	2244.688183784253	1009.121735898113	0
344	2243.700470819678	1008.951968503962	0
345	2244.688220492292	1009.121740354818	0
346	2244.688206908859	1009.121737194612	0
347	2245.675814598902	1009.291869144066	0
348	2245.67599528919	1009.291878231975	0
349	2247.659670158891	1009.582385263544	0
350	2245.675833615443	1009.291873164254	0
351	2247.659580746418	1009.582389823426	0
352	2247.659662449605	1009.582385601705	0
353	2248.660550659124	1009.655214958238	0
354	2248.66066280518	1009.65522777787	0
355	2249.652820991663	1009.799278382318	0
356	2248.660653201841	1009.6552210599	0
357	2249.652839579615	1009.799277174968	0
358	2249.652812313742	1009.799278767263	0
359	2258.609726740478	1010.921200598075	0
360	2258.609640244827	1010.921204552064	0
361	2259.602538907911	1011.062334632906	0
362	2258.609718445573	1010.921199419165	0
363	2259.602666488699	1011.062310664304	0
364	2259.602773801351	1011.062315050398	0
365	2274.619143003337	1011.984288616016	0
366	2274.61910217321	1011.984297149991	0
367	2275.616803590297	1012.084812070897	0
368	2274.619221292176	1011.984285240761	0
369	2275.616845544816	1012.084805771353	0
370	2275.616819154975	1012.084802058823	0
371	2305.710657323105	1011.916310573096	0
372	2305.710266789886	1011.916361805271	0
373	2306.702462007365	1011.77120741835	0
374	2305.710666046779	1011.916314654597	0
375	2306.702593828109	1011.771198509119	0
376	2306.702586475564	1011.77119864825	0
377	2330.715915037195	1010.012199771479	0
378	2330.715885878643	1010.012195370811	0
379	2331.711732543943	1009.893572538658	0
380	2330.716071991392	1010.012202092026	0
381	2331.711826125263	1009.893576417874	0
382	2331.711749563288	1009.893571333473	0
383	2334.691020041448	1009.47155180984	0
384	2334.690998155481	1009.471550504657	0
385	2335.688760140443	1009.354508039923	0
386	2334.691073813434	1009.47155053207	0
387	2335.688697094273	1009.354510846471	0
388	2335.688688586063	1009.354511555881	0
389	2348.640106611245	1007.789918420205	0
390	2348.639673171368	1007.789921770952	0
391	2349.626177854232	1007.601153455036	0
392	2348.640196056793	1007.789911932074	0
393	2349.626231278748	1007.601159173588	0
394	2349.626263145492	1007.601162955635	0
395	2389.839874142809	1007.085812630315	0
396	2389.839983805426	1007.085835327845	0
397	2390.837970509815	1007.121611859956	0
398	2389.840624854588	1007.085926811247	0
399	2390.838488269269	1007.121555537505	0
400	2390.836739866313	1007.121233015423	0
401	2405.206220472885	1010.026568542661	0
402	2405.187654546572	1010.027575300254	0
403	2405.215764801058	1010.026623340391	0
404	2405.206384746457	1010.026544899285	0
405	2420.564527359347	1007.81271361978	0
406	2420.565645538382	1007.81265888904	0
407	2421.542739788997	1007.584231500669	0
408	2420.563982327664	1007.812767563974	0
409	2421.541233686121	1007.584345344538	0
410	2421.541413159296	1007.584341024524	0
411	2425.549073668938	1007.213447902876	0
412	2425.549436193392	1007.21342949195	0
413	2426.549750173325	1007.103466281971	0
414	2425.549172226377	1007.213423522879	0
415	2426.54899936639	1007.103530090555	0
416	2426.548944577004	1007.103538399507	0
417	2430.524507118185	1006.528462657374	0
418	2430.524578247159	1006.528458511746	0
419	2431.50619706504	1006.315220223302	0
420	2430.524397635444	1006.528467485912	0
421	2431.505970650649	1006.315240869858	0
422	2431.506191786673	1006.315216811697	0
423	2432.482627100716	1006.072424367436	0
424	2432.482584187577	1006.072433430878	0
425	2434.459062339461	1005.712525512184	0
426	2432.482657376421	1006.072426113702	0
427	2434.459269057563	1005.712507350707	0
428	2434.459243482624	1005.712509960969	0
429	2435.454771741308	1005.578321711301	0
430	2435.454746386725	1005.57832042298	0
431	2436.459060191602	1005.555083926305	0
432	2435.454284467486	1005.578290815165	0
433	2436.458992093202	1005.555077632226	0
434	2436.459001400394	1005.555083309415	0
435	2441.474256327105	1005.427852877061	0
436	2441.474229154067	1005.427858302053	0
437	2442.470532301319	1005.30285301652	0
438	2441.474103872665	1005.42785653221	0
439	2442.470319072584	1005.302865124886	0
440	2442.470360416149	1005.302863639841	0
441	2445.480726667608	1005.3482353414	0
442	2445.480750558995	1005.34822230579	0
443	2446.477727713754	1005.478023635428	0
444	2445.480723404926	1005.348225178024	0
445	2446.477439476549	1005.478028796872	0
446	2446.477449780979	1005.478023911053	0
447	2461.473987196223	1004.300733379298	0
448	2461.473987197218	1004.300733379202	0
449	2462.47231975083	1004.385368688537	0
450	2461.473913029704	1004.300740735693	0
451	2462.472184336534	1004.38537429135	0
452	2462.472215116616	1004.385373928812	0
453	2479.503525612385	1004.740284146835	0
454	2479.503481583346	1004.740285991461	0
455	2480.500384279899	1004.842310835634	0
456	2480.500384280899	1004.842310835603	0
457	2481.500401950352	1004.910167766933	0
458	2479.503442652436	1004.740291217287	0
459	2480.500152755851	1004.842316158799	0
460	2480.500290630251	1004.842312087374	0
461	2481.500363464806	1004.910168399748	0
462	2481.500359130227	1004.910168781903	0
463	2499.502881555461	1003.739988113796	0
464	2499.502914041859	1003.739987865778	0
465	2500.504634395654	1003.727855719115	0
466	2499.502848658195	1003.73998860658	0
467	2500.504508151672	1003.727859000983	0
468	2500.504506307389	1003.727857953481	0
469	2523.424554695448	1001.322888860968	0
470	2523.424606630173	1001.322883676443	0
471	2524.41712151286	1001.184269708184	0
472	2523.424538821987	1001.322886374446	0
473	2524.417094721116	1001.184273170408	0
474	2524.417100073681	1001.184271928063	0
475	2596.550274483072	1000.816666210862	0
476	2596.550311666232	1000.816664815748	0
477	2597.545347705843	1000.92596897271	0
478	2596.550357091765	1000.816657676062	0
479	2597.545322204134	1000.925965459539	0
480	2597.54531661592	1000.925970140039	0
481	2605.536294335437	1001.604353201954	0
482	2605.536307121086	1001.604350728473	0
483	2606.519756224129	1001.796674499813	0
484	2605.536275058776	1001.604357081011	0
485	2606.51972555698	1001.796677728692	0
486	2606.519725108712	1001.796679062395	0
487	2608.500216763679	1002.104439548961	0
488	2608.500311184834	1002.104447799756	0
489	2609.488737841057	1002.26768846773	0
490	2608.500221914792	1002.104438404979	0
491	2609.488656375615	1002.267692422463	0
492	2609.488722419128	1002.267692363532	0
493	2617.478125728138	1002.943371595965	0
494	2617.478257461262	1002.943373076162	0
495	2618.458403939014	1003.153532808827	0
496	2617.478116529859	1002.943372353052	0
497	2618.458370815495	1003.153530539503	0
498	2618.458453881428	1003.153535025141	0
499	2625.435661209805	1003.902066411363	0
500	2625.435661208805	1003.902066411377	0
501	2626.43749640005	1003.891262603455	0
502	2625.435657303494	1003.902073068073	0
503	2626.437504411067	1003.891265879122	0
504	2626.437500405728	1003.891266348968	0
505	2700.554499145444	1003.956066230605	0
506	2700.554514367566	1003.956067851089	0
507	2701.546865067546	1003.817780002257	0
508	2700.554475394507	1003.956060118468	0
509	2701.546865919377	1003.817778063268	0
510	2701.546862770589	1003.817778555709	0
511	2702.53648550347	1003.663713894421	0
512	2702.536481831525	1003.663715620067	0
513	2703.53092780488	1003.54384607759	0
514	2702.536465286599	1003.663714964923	0
515	2703.53094195932	1003.543842928151	0
516	2703.530946833484	1003.543844987826	0
517	2704.522568272814	1003.404315383452	0
518	2704.522676143926	1003.404305224262	0
519	2705.517499967761	1003.290464400017	0
520	2704.52255050271	1003.404316061623	0
521	2705.517470165539	1003.290467375849	0
522	2705.517521605123	1003.290466682433	0
523	2729.556738884659	1002.933653923563	0
524	2729.556823311871	1002.933647338912	0
525	2730.550512206977	1003.061974849582	0
526	2729.556715908478	1002.933655212237	0
527	2730.550450244082	1003.061976211306	0
528	2730.550460698871	1003.061975593105	0
529	2767.532587065016	1005.478732692785	0
530	2767.532620174817	1005.478736160126	0
531	2768.531654867435	1005.406211447995	0
532	2767.532613875258	1005.478730132195	0
533	2768.531635368549	1005.406215850375	0
534	2768.53165295571	1005.406216622987	0
535	2778.538321454198	1005.881617257411	0
536	2778.538344792813	1005.881615804002	0
537	2779.5340816691	1005.996841791164	0
538	2778.538315542692	1005.881617117872	0
539	2779.534084946257	1005.996839404432	0
540	2779.534067758602	1005.996835598732	0
541	2788.553442251654	1005.932562201515	0
542	2788.553426987947	1005.932562461691	0
543	2789.550030383356	1005.826172541408	0
544	2788.553479550497	1005.932556475106	0
545	2789.549968087425	1005.826171963491	0
546	2789.549945874578	1005.826173797622	0
547	2792.534113435434	1005.4604751789	0
548	2792.534138408833	1005.460470619689	0
549	2793.532199761302	1005.375569381708	0
550	2792.534183703913	1005.460465187847	0
551	2793.532163598838	1005.375565723618	0
552	2793.532198968716	1005.375569145526	0
553	2815.539709020096	1004.046159695829	0
554	2815.539711588418	1004.046159710401	0
555	2816.539365523351	1003.973156096743	0
556	2815.539731260622	1004.046154807949	0
557	2816.539298741784	1003.973133288032	0
558	2816.539327848137	1003.973157244607	0
559	2842.558203407752	1005.511137185245	0
560	2842.5581948209	1005.511135912976	0
561	2843.545915116585	1005.679735312527	0
562	2842.558182541154	1005.511134835528	0
563	2843.545891597794	1005.679734132333	0
564	2843.545922611907	1005.679736411895	0
565	2847.50704895159	1006.315957921838	0
566	2847.507016269424	1006.315955643533	0
567	2848.509755544623	1006.320694073268	0
568	2847.507130370957	1006.316058712918	0
569	2848.509759867164	1006.320700217911	0
570	2848.509768999612	1006.320694420132	0
571	2960.672409041367	1005.392500595781	0
572	2960.672433335531	1005.39250278865	0
573	2961.658108660091	1005.213292124812	0
574	2960.672424119569	1005.392499537086	0
575	2961.658071630867	1005.213292342849	0
576	2961.658100636488	1005.213291356985	0
577	2962.65067284982	1005.078094283631	0
578	2962.650685436124	1005.078095773633	0
579	2963.635328498501	1004.894430747688	0
580	2962.650640871324	1005.078098372674	0
581	2963.635323278222	1004.894430007867	0
582	2963.63536660002	1004.894425904896	0
583	2965.60940406868	1004.5507982766	0
584	2965.60943273177	1004.550792896323	0
585	2966.602088246166	1004.416058667619	0
586	2965.609409186645	1004.550797592637	0
587	2966.602078352182	1004.416072587233	0
588	2966.602091507336	1004.416069748468	0
589	2992.530409841672	1001.905551940685	0
590	2992.530424513526	1001.905549043131	0
591	2993.521576043065	1001.762049924784	0
592	2992.530387074643	1001.905553569501	0
593	2993.521626766593	1001.762043959108	0
594	2993.521664637437	1001.762040718259	0
595	2994.512280938697	1001.611500395777	0
596	2994.512318094134	1001.611496429703	0
597	2995.503757506791	1001.467820255336	0
598	2994.512280939689	1001.61150039565	0
599	2995.503757027406	1001.46782211064	0
600	2995.503750686072	1001.467822098341	0
601	3005.509349636387	1000.923099486659	0
602	3005.509396812973	1000.923096450945	0
603	3006.499427619181	1000.770929269548	0
604	3005.509354381431	1000.923098158221	0
605	3006.49944066402	1000.770926544366	0
606	3006.499442830127	1000.770927625764	0
607	3007.490516964697	1000.625891850254	0
608	3006.499441243876	1000.770923289812	0
609	3007.490508686775	1000.625887096861	0
610	3007.490512266922	1000.625892556907	0
611	3083.607916675462	1001.384951244863	0
612	3083.607895887521	1001.384952709581	0
613	3084.608262715962	1001.434064072169	0
614	3083.607901808263	1001.384952038855	0
615	3084.608266309991	1001.434063170806	0
616	3084.608269386863	1001.434062830289	0
617	3102.59343673201	1000.000020953035	0
618	3102.593429198199	1000.000020498054	0
619	3103.594870316212	1000.025781352987	0
620	3102.593460343596	1000	0
621	3103.594893319626	1000.025777880977	0
622	3103.594895999896	1000.025779748056	0
623	3131.64164065606	1000.514915207139	0
624	3131.64160517353	1000.514919118801	0
625	3133.64089886137	1000.375216090073	0
626	3131.641636637389	1000.514916507153	0
627	3133.640920228109	1000.375224615126	0
628	3133.640938742819	1000.375226049803	0
629	3178.582021436393	1004.067286452336	0
630	3178.582018225793	1004.067285651016	0
631	3179.564530235647	1004.263211117839	0
632	3178.582177009469	1004.06727258898	0
633	3179.564550455548	1004.263217994797	0
634	3179.564531717343	1004.263211955773	0
635	3198.545408362024	1005.667354233089	0
636	3198.54542359792	1005.667355064505	0
637	3199.541631286847	1005.770245874771	0
638	3198.545411771483	1005.667354790056	0
639	3199.541632266286	1005.770241741165	0
640	3199.541662748283	1005.770243324931	0
641	3229.574603658794	1006.7323876083	0
642	3229.574592374195	1006.732387357162	0
643	3230.57209447899	1006.639307680218	0
644	3229.574618370741	1006.732388283942	0
645	3230.572098074169	1006.639308686379	0
646	3230.572105208709	1006.639308361541	0
647	3232.566414045483	1006.448903418979	0
648	3232.566407935828	1006.448903507489	0
649	3233.563338724579	1006.352396508639	0
650	3232.566380057858	1006.448904011825	0
651	3233.563340845801	1006.35239709629	0
652	3233.563336787813	1006.352397265694	0
653	3284.656580720285	1006.388284624321	0
654	3284.656581588064	1006.388282445097	0
655	3285.650557532153	1006.515232890971	0
656	3284.656651290153	1006.388293731411	0
657	3285.650611367345	1006.515240320143	0
658	3285.650604153446	1006.515239701749	0
659	3321.609981785383	1009.597667211779	0
660	3321.610078844631	1009.597680990575	0
661	3322.611625973774	1009.573398272197	0
662	3321.609926398077	1009.597667283905	0
663	3322.611538376054	1009.57339344117	0
664	3322.611558785963	1009.573392745734	0
665	3338.646139923158	1010.095260591146	0
666	3338.646125560552	1010.095261844793	0
667	3339.648300506447	1010.059818658228	0
668	3338.64612788657	1010.095277853178	0
669	3339.64837467838	1010.059831569585	0
670	3339.648333352192	1010.059819165242	0
671	3345.654913499819	1009.723527902067	0
672	3345.654949785008	1009.723526842499	0
673	3346.653225939731	1009.62980615841	0
674	3345.655008086036	1009.723530249665	0
675	3346.653250969474	1009.629815471178	0
676	3346.653303614103	1009.629802360403	0
677	3350.634505752032	1009.142158691785	0
678	3350.634487844926	1009.142160696459	0
679	3351.62443978239	1008.984826610178	0
680	3350.634466548042	1009.142172978178	0
681	3351.624374849524	1008.984829488711	0
682	3351.624398907516	1008.984828867229	0
683	3379.583783992082	1006.394799878698	0
684	3379.583786467584	1006.394799170816	0
685	3381.564664312313	1006.081834808192	0
686	3379.583716729216	1006.394805660817	0
687	3381.564673630782	1006.081836037529	0
688	3381.56464788722	1006.081838654586	0
689	3400.517045783346	1004.114636275565	0
690	3400.517105027641	1004.114630251147	0
691	3401.510071218633	1003.968719852931	0
692	3400.517080484678	1004.114636551642	0
693	3401.510167077603	1003.968699298391	0
694	3400.517458056103	1004.114555680985	0
695	3401.509903935177	1003.968573091919	0
696	3401.51015686042	1003.968701051196	0
697	3402.514416560347	1003.977036795191	0
698	3401.510223569753	1003.968674271748	0
699	3402.51444154283	1003.977033276205	0
700	3402.514402086716	1003.977035900123	0
701	3412.535402441178	1003.7062589745	0
702	3412.53531554761	1003.706256246702	0
703	3413.534563245566	1003.633325984277	0
704	3412.535395109812	1003.7062597984	0
705	3413.534575730233	1003.633336130702	0
706	3413.53458907572	1003.633338560292	0
707	3427.560794497672	1004.194993801012	0
708	3427.56081789975	1004.194997129113	0
709	3428.559363359609	1004.108666805957	0
710	3427.560819435105	1004.194994155063	0
711	3428.559391240677	1004.108669871175	0
712	3428.559380081516	1004.108669863167	0
713	3453.602559885042	1004.926199362122	0
714	3453.602564972457	1004.926199434576	0
715	3454.599170406611	1005.030491805363	0
716	3453.602563651425	1004.926202070636	0
717	3454.599233470446	1005.030492817321	0
718	3454.599251182611	1005.030494116256	0
719	3455.591333497975	1005.171932882888	0
720	3454.599230164836	1005.030488716859	0
721	3455.591341207077	1005.171932630472	0
722	3455.591339970118	1005.171933324899	0
723	3480.591354197995	1006.896143040936	0
724	3480.591346946173	1006.896144428769	0
725	3481.593252587851	1006.916666303834	0
726	3480.591393336313	1006.896147036251	0
727	3481.593232976309	1006.916671049799	0
728	3481.593240477036	1006.916666763238	0
729	3486.598483110439	1006.617947505454	0
730	3486.598512041999	1006.617950734708	0
731	3487.600773447599	1006.599178248769	0
732	3486.598583125911	1006.617942265199	0
733	3487.600756706302	1006.599176026302	0
734	3487.600770521768	1006.599176378308	0
735	3520.602472124074	1008.88613324911	0
736	3520.602491728839	1008.886134755172	0
737	3521.584058614203	1009.092269031767	0
738	3520.60254957181	1008.886130227407	0
739	3521.584167926876	1009.092278255269	0
740	3520.602469129552	1008.88614034887	0
741	3521.584108721523	1009.092269761694	0
742	3521.584088002915	1009.092267985207	0
743	3527.57968879309	1009.596860987377	0
744	3527.579661805953	1009.596858977457	0
745	3528.573836422044	1009.727908548545	0
746	3527.579688933736	1009.596857323124	0
747	3528.573854341754	1009.727920406993	0
748	3528.573840186294	1009.727916257123	0
749	3560.634537008307	1011.128098496222	0
750	3560.634548696279	1011.128099003676	0
751	3561.636988032073	1011.166376179952	0
752	3560.634573540064	1011.128103895493	0
753	3561.63693177022	1011.166393441312	0
754	3561.636977095293	1011.16637634866	0
755	3571.649171293406	1010.575690085385	0
756	3571.649174795206	1010.57568945734	0
757	3572.651841951622	1010.543272056415	0
758	3571.649078735267	1010.575705201274	0
759	3572.651134799823	1010.543570119785	0
760	3572.651952329917	1010.543269011991	0
761	3578.624705438958	1009.786266903156	0
762	3578.624706935593	1009.786264446417	0
763	3579.623796752294	1009.702136997842	0
764	3578.624745962946	1009.7862646399	0
765	3579.623856230193	1009.702133336081	0
766	3579.623816451736	1009.702136684503	0
767	3584.618998957234	1009.240939786407	0
768	3584.619002398334	1009.240936861953	0
769	3585.601862600901	1009.035922490649	0
770	3584.619128538312	1009.240981063469	0
771	3585.601923159743	1009.035922002562	0
772	3585.601822504122	1009.035929932617	0
773	3586.594561116221	1008.88991817061	0
774	3586.594584689083	1008.889916990125	0
775	3587.578530335155	1008.698638816294	0
776	3586.594561296763	1008.889921282259	0
777	3587.578628933756	1008.698619599243	0
778	3587.578544470457	1008.698636852868	0
779	3611.553009711251	1006.526807144753	0
780	3611.553050643302	1006.526791904599	0
781	3612.556049228444	1006.546980954657	0
782	3611.553035216325	1006.526804861101	0
783	3612.556067778621	1006.546983918938	0
784	3612.556078415302	1006.546983561683	0
785	3621.567160727242	1006.009566379367	0
786	3621.567206220941	1006.009557973508	0
787	3622.568458395993	1005.949658372598	0
788	3621.567133572917	1006.009569618254	0
789	3622.568520665252	1005.949671576302	0
790	3622.568435428683	1005.949674150293	0
791	3627.591496240065	1006.214966317637	0
792	3627.591413667809	1006.214966622366	0
793	3628.586624792629	1006.100402804816	0
794	3627.59046425942	1006.215115465624	0
795	3628.586884056622	1006.100407554434	0
796	3628.586517515154	1006.10040076881	0
797	3641.883822733327	1005.934043950527	0
798	3641.886357975649	1005.93388519104	0
799	3641.9074460089	1005.932473488977	0
800	3641.907368821082	1005.932469219044	0
801	3676.097585112218	1002.910394747725	0
802	3676.097485232395	1002.910392276812	0
803	3677.085827998151	1002.743198724328	0
804	3676.097778241524	1002.91038370738	0
805	3677.086331131893	1002.743218567347	0
806	3677.086303735708	1002.743221075679	0
807	3698.183221704114	1002.255435070017	0
808	3698.183151344509	1002.25542965688	0
809	3699.180873644488	1002.36894012591	0
810	3698.183513292521	1002.255442651382	0
811	3699.181198481535	1002.368951262784	0
812	3699.181152242305	1002.368949567323	0
813	3717.297247954045	1003.612742722002	0
814	3717.297220502767	1003.612727546919	0
815	3718.223208719735	1004.015152072804	0
816	3717.300659566484	1003.612463903221	0
817	3718.226760803474	1004.015756967061	0
818	3718.223003087635	1004.015180902897	0
819	3743.079036351522	1002.996108766794	0
820	3743.054718187391	1002.985385923913	0
821	3743.104292863054	1003.000037569279	0
822	3743.08050097655	1002.99649177039	0
823	3746.235015728487	1004.706983142489	0
824	3746.235667790311	1004.707180213604	0
825	3747.249537091142	1004.663343497916	0
826	3746.234425988236	1004.706723510473	0
827	3747.248732334881	1004.662961749003	0
828	3747.247998266405	1004.662700141713	0
829	3763.45264685637	1004.747170303907	0
830	3763.452576532428	1004.747183433922	0
831	3764.460591016201	1004.64769056791	0
832	3763.452338045976	1004.747159218833	0
833	3764.460255007769	1004.647704978638	0
834	3764.460143076193	1004.647711258798	0
835	3772.448989093999	1005.537342232891	0
836	3772.448915021823	1005.537339462989	0
837	3773.453139980327	1005.567565501294	0
838	3772.449034326462	1005.537354163484	0
839	3773.452944606101	1005.567569865496	0
840	3773.45315956808	1005.567566367693	0
841	3774.456854172268	1005.537939040403	0
842	3773.453830465165	1005.56768563387	0
843	3774.456781239054	1005.5379346221	0
844	3774.45673259828	1005.537933918174	0
845	3802.52644004819	1005.264867206602	0
846	3802.526476216662	1005.264867865995	0
847	3803.526999860353	1005.176734130394	0
848	3802.526415374507	1005.264865489308	0
849	3803.527008835537	1005.176719297873	0
850	3803.527002267604	1005.176733008724	0
851	3843.470247065028	1008.809787198852	0
852	3843.470232899858	1008.809780457353	0
853	3844.452911414682	1009.012745865378	0
854	3843.470121606888	1008.80976945088	0
855	3844.452654115767	1009.012769397707	0
856	3844.452920995672	1009.012747844323	0
857	3845.452639689029	1009.096163922217	0
858	3845.452681630254	1009.096163893042	0
859	3846.45063876696	1009.190974498086	0
860	3845.452583920847	1009.096163875136	0
861	3846.450603704809	1009.190974035788	0
862	3846.450595287071	1009.19097435924	0
863	3874.512512833136	1008.112530738817	0
864	3874.512536325946	1008.112530298536	0
865	3875.513338212071	1008.188001969737	0
866	3874.512449158029	1008.112529218083	0
867	3875.513119434944	1008.188002193708	0
868	3875.513247092661	1008.187999478847	0
869	3884.537768156687	1007.921897797244	0
870	3884.53780292276	1007.921897690961	0
871	3885.534466373798	1008.025594978518	0
872	3884.537777664776	1007.921889753249	0
873	3885.534274996539	1008.025583334771	0
874	3885.534475518128	1008.025598982433	0
875	3897.492233607073	1009.383737934181	0
876	3897.492248721446	1009.383736892485	0
877	3898.481192281162	1009.545010997906	0
878	3897.492171363398	1009.38374064176	0
879	3898.481119542834	1009.545002894086	0
880	3898.481179915996	1009.545007480879	0
881	3916.41146903301	1011.577866641765	0
882	3916.411566732677	1011.57787274457	0
883	3917.401008919214	1011.737229145285	0
884	3916.411453110104	1011.577865827702	0
885	3917.400911582994	1011.73721322936	0
886	3917.400933097851	1011.73721201455	0
887	3973.53079123508	1012.013265829331	0
888	3973.530791263264	1012.013265125136	0
889	3974.52421534637	1012.145811668302	0
890	3973.530790936265	1012.013261399754	0
891	3974.524231158022	1012.145810174365	0
892	3974.524245817242	1012.145814215001	0
893	3985.457144934254	1013.580857322595	0
894	3985.457191056674	1013.58086155443	0
895	3986.450799566423	1013.709257194235	0
896	3985.45725259016	1013.580866894167	0
897	3986.45077411585	1013.709256247938	0
898	3986.450799565423	1013.709257194225	0
899	4010.494959111261	1014.378701061533	0
900	4010.494979685734	1014.378703787191	0
901	4011.483344300806	1014.541765728001	0
902	4010.494945177026	1014.378700092751	0
903	4011.483288925563	1014.54176504456	0
904	4011.483347082869	1014.541765563812	0
905	4044.487675817026	1016.558736388936	0
906	4044.487674116085	1016.558735207429	0
907	4045.488102634718	1016.616657140968	0
908	4044.487687810018	1016.558737333909	0
909	4045.488090182251	1016.616658160773	0
910	4045.488094210941	1016.616656682708	0
911	4052.466739079649	1017.39906298874	0
912	4052.466730170216	1017.399062665188	0
913	4053.467222880922	1017.472590366435	0
914	4052.466815422653	1017.39908333209	0
915	4053.467253459992	1017.472602301076	0
916	4053.467195187078	1017.472586366867	0
917	4060.484951678964	1017.218009484826	0
918	4060.484977587164	1017.218007713908	0
919	4061.479568403212	1017.09214222976	0
920	4060.484905440269	1017.218018879304	0
921	4061.479523357643	1017.09214389537	0
922	4061.479538239966	1017.09214364402	0
923	4081.468191884901	1015.54766531014	0
924	4081.468209707955	1015.547664512375	0
925	4082.47045974314	1015.571453213439	0
926	4081.468200634392	1015.54766243949	0
927	4082.470493773491	1015.571455161673	0
928	4082.470515778932	1015.571453392804	0
929	4089.453842536132	1014.888171407418	0
930	4089.45384748373	1014.888170765097	0
931	4090.4439223247	1014.736167189272	0
932	4089.453811650534	1014.888169762827	0
933	4090.443929783213	1014.736165802351	0
934	4090.443942973659	1014.736167380363	0
935	4148.547067207093	1015.092416025776	0
936	4148.547050846688	1015.092416739173	0
937	4149.543857904038	1014.992515065964	0
938	4148.547062321751	1015.092416507656	0
939	4149.543832156034	1014.992513869776	0
940	4149.543830316772	1014.992514392893	0
941	4189.57507805557	1013.317785980793	0
942	4189.575069043268	1013.317784279213	0
943	4190.569919172454	1013.201843941432	0
944	4189.575134125086	1013.317800144539	0
945	4190.570005070802	1013.201842103676	0
946	4190.569966547804	1013.201843372353	0
947	4219.577221331888	1011.606675318158	0
948	4219.577216484059	1011.606675889808	0
949	4220.569665983247	1011.470480197482	0
950	4219.57721556117	1011.606675702912	0
951	4220.569603062733	1011.470478316437	0
952	4219.57722539354	1011.606676612855	0
953	4220.569644175803	1011.470482654891	0
954	4220.569594913688	1011.47048033007	0
955	4233.451877469689	1009.501967423477	0
956	4233.451908297246	1009.501964139859	0
957	4234.448664361023	1009.398081936423	0
958	4233.451835003278	1009.501963780843	0
959	4234.448687042992	1009.398071744883	0
960	4234.448691795515	1009.398070211407	0
961	4243.471861590346	1009.563150541706	0
962	4243.471863910299	1009.563150700426	0
963	4244.472230555255	1009.509169592629	0
964	4243.47189241297	1009.563154594728	0
965	4244.472167311058	1009.509174529741	0
966	4244.472193050517	1009.509171031035	0
967	4269.437524634839	1007.609140224006	0
968	4269.437518740602	1007.609145003613	0
969	4270.421461974141	1007.420984299903	0
970	4269.437524200301	1007.609141666817	0
971	4270.421419771283	1007.420985748104	0
972	4270.421434066392	1007.420986415647	0
973	4288.324607335029	1005.311005796985	0
974	4288.324656735684	1005.311003940875	0
975	4289.319852546419	1005.197533960225	0
976	4288.324616707619	1005.311005159179	0
977	4289.319846852108	1005.197537450837	0
978	4289.319854864796	1005.197536299831	0
979	4294.329832685869	1005.221963819644	0
980	4294.329881796471	1005.22195933767	0
981	4295.326950350824	1005.316125561216	0
982	4294.329836999268	1005.221963709623	0
983	4295.326942679383	1005.316121463525	0
984	4295.326950818804	1005.31612060662	0
985	4322.339019868562	1004.186183070704	0
986	4322.339061359645	1004.186186803192	0
987	4323.327139866771	1004.024037681683	0
988	4322.339032792117	1004.186181369128	0
989	4323.327107750627	1004.024038387821	0
990	4323.327133503932	1004.024038591248	0
991	4335.3013875635	1003.027155181375	0
992	4335.301398044257	1003.027156358613	0
993	4336.287301331219	1002.851629859902	0
994	4335.301372176787	1003.027154921065	0
995	4336.287284059123	1002.851629457884	0
996	4336.287296593817	1002.851631390226	0
997	4337.26999679488	1002.659587631921	0
998	4336.287250531226	1002.851632407245	0
999	4337.26998156339	1002.659587346905	0
1000	4337.269996793881	1002.659587631942	0
1001	4363.261042032451	1001.249211802888	0
1002	4363.261038818579	1001.249211977258	0
1003	4364.255913391156	1001.171148443073	0
1004	4363.261387791927	1001.249212929795	0
1005	4364.256490034051	1001.171180353175	0
1006	4364.255936430679	1001.171150252885	0
1007	4379.338430536034	1001.708732002201	0
1008	4379.326731675353	1001.701886143306	0
1009	4379.344087721161	1001.70834362933	0
1010	4379.338182210644	1001.708573230144	0
1011	4380.243734523323	1002.328960654424	0
