idx	X	Y	component
0	1000	1000	0
1	1454.433066703255	1048.425108222563	0
2	1454.442631474553	1048.42609464875	0
3	1454.475331021711	1048.429405951925	0
4	1454.433097834254	1048.425108620755	0
5	2255.143115481261	1059.527475343463	0
6	2255.143099687295	1059.527475230424	0
7	2256.112818504223	1059.281519590072	0
8	2255.143115390527	1059.527480461386	0
9	2256.112835713579	1059.281529206797	0
10	2256.112821146879	1059.281520208219	0
11	2285.948593702164	1055.683459330419	0
12	2285.948595561746	1055.683458859066	0
13	2286.949868212551	1055.677253738791	0
14	2285.948588357709	1055.683460662342	0
15	2286.949914086082	1055.677255044932	0
16	2286.949881396698	1055.677254913807	0
17	2445.808296688509	1067.531336494746	0
18	2445.808296689507	1067.531336494811	0
19	2446.803921005462	1067.636907106143	0
20	2445.808316338654	1067.531335760686	0
21	2446.80392302889	1067.636906482267	0
22	2446.803930516061	1067.636906827114	0
23	2506.895926350774	1069.122787825361	0
24	2506.895957131983	1069.122787875303	0
25	2507.893791283912	1069.03302292421	0
26	2506.895970895396	1069.122786724537	0
27	2507.893773497857	1069.033024044809	0
28	2507.893773498852	1069.033024044715	0
29	2553.785487195908	1064.696199575211	0
30	2553.785465620758	1064.696203663463	0
31	2554.767500858387	1064.501150477821	0
32	2553.785538473247	1064.69619775125	0
33	2554.767515509481	1064.501148451516	0
34	2554.767506288306	1064.501149618609	0
35	2570.557977423462	1061.736205011401	0
36	2570.557992401538	1061.736204308574	0
37	2571.550950763314	1061.603764298492	0
38	2570.557977424158	1061.736205010684	0
39	2571.551008792319	1061.603755479861	0
40	2571.550956702608	1061.603763754933	0
41	2856.921635189691	1054.633878271547	0
42	2856.921620071835	1054.633877221932	0
43	2857.922002790875	1054.682448690574	0
44	2856.921632791333	1054.633876985333	0
45	2857.921998238201	1054.682448691036	0
46	2857.922001739546	1054.68244884897	0
47	3122.104850247709	1068.923843301965	0
48	3122.104845540092	1068.923856229695	0
49	3123.106784767632	1068.88188177458	0
50	3122.104844794451	1068.923841546326	0
51	3123.106843914853	1068.88176831049	0
52	3123.106870015079	1068.881766277427	0
53	3133.993304493803	1067.13670936305	0
54	3133.993286928888	1067.136712599569	0
55	3134.980942151196	1066.966122321614	0
56	3133.993320528577	1067.13660671249	0
57	3134.980940300994	1066.966116627527	0
58	3134.980964097374	1066.966112880143	0
59	3136.933466294226	1066.511142942889	0
60	3136.933476959288	1066.511135088488	0
61	3138.874241433019	1066.012359094813	0
62	3136.933474406249	1066.511142064919	0
63	3138.87429644111	1066.012390573591	0
64	3138.87429668391	1066.01239057233	0
65	3232.48229237845	1055.416660717297	0
66	3232.482316276849	1055.416661646936	0
67	3233.461139640856	1055.204386327892	0
68	3232.482296678509	1055.416659174237	0
69	3233.461150816434	1055.204384610814	0
70	3233.461157808683	1055.204384124538	0
71	3247.374081614922	1053.352008426714	0
72	3247.374081615908	1053.352008426545	0
73	3248.371507802841	1053.256486538051	0
74	3247.374084309689	1053.352011624517	0
75	3248.371502433769	1053.256486189917	0
76	3248.371520547355	1053.256486874777	0
77	3264.40713596558	1053.744320117976	0
78	3264.407152556284	1053.744320185285	0
79	3265.406952517375	1053.690775701047	0
80	3264.407136531494	1053.7443201177	0
81	3265.406991745649	1053.690774945444	0
82	3265.406955440978	1053.690775219707	0
83	3380.398159471015	1047.070898670569	0
84	3380.398161047875	1047.070898161638	0
85	3382.388233711782	1047.291069895126	0
86	3380.398175257862	1047.070898011333	0
87	3382.388198895918	1047.291068506147	0
88	3382.388236975979	1047.291068074129	0
89	3703.158949706686	1043.007959831767	0
90	3703.165346783275	1043.0082801812	0
91	3703.390653370018	1043.019629284926	0
92	3703.399187273742	1043.020060689128	0
93	3960.994147470738	1052.701166558219	0
94	3960.994121107755	1052.701164504716	0
95	3961.99213050526	1052.782676284813	0
96	3960.994162128857	1052.701167253386	0
97	3961.992142331807	1052.782677752136	0
98	3961.992130506248	1052.78267628466	0
99	4024.740376840999	1060.137854061781	0
100	4024.740341142122	1060.137852239056	0
101	4025.741887944278	1060.114984762513	0
102	4024.740361407411	1060.137868307299	0
103	4025.74190960543	1060.114995706572	0
104	4025.74188588862	1060.114983531009	0
105	4040.755325770648	1059.176519450906	0
106	4040.75535303109	1059.176516177033	0
107	4041.727530914234	1058.930748427212	0
108	4040.755372806771	1059.176538936421	0
109	4041.727543072032	1058.93075054596	0
110	4041.727564680915	1058.930745174701	0
111	4050.642513094802	1057.544811733285	0
112	4050.642502640705	1057.544814649061	0
113	4051.633964004071	1057.405266778579	0
114	4050.642486448901	1057.544799228043	0
115	4051.63393595141	1057.405139357592	0
116	4051.633959779875	1057.40526754756	0
117	4213.87223581664	1059.236676574698	0
118	4213.872250968403	1059.23667560952	0
119	4214.869617937329	1059.338924771083	0
120	4213.872303824017	1059.2366705144	0
121	4214.869700470963	1059.338913961361	0
122	4214.869709129725	1059.33891325089	0
123	4215.870680184151	1059.290263557962	0
124	4214.869622475215	1059.338933987934	0
125	4215.870676851845	1059.290260250904	0
126	4215.87066669484	1059.290264592527	0
127	4329.984391754964	1063.186895896887	0
128	4329.984391224527	1063.186895912596	0
129	4330.95010609766	1062.922041774773	0
130	4329.984635219593	1063.187171368422	0
131	4330.950205380546	1062.921938479802	0
132	4330.950112822637	1062.922042477084	0
133	4731.294649116584	1042.153479498051	0
134	4731.294654695524	1042.153482121928	0
135	4732.291647785889	1042.259831032364	0
136	4731.294731637185	1042.15344352136	0
137	4732.292034659587	1042.259260494334	0
138	4732.291651622241	1042.259832584929	0
139	4764.825385641787	1048.302810803939	0
140	4764.82541152562	1048.302812984503	0
141	4765.809795544534	1048.488369837295	0
142	4764.825406034356	1048.302864526242	0
143	4765.809826220328	1048.488385397429	0
144	4765.809820640578	1048.488384086804	0
145	4910.961235201108	1057.270282921854	0
146	4910.961235200113	1057.270282921752	0
147	4911.826367160535	1056.761981737882	0
148	4910.961407702929	1057.270359862522	0
149	4911.827239798522	1056.761652449018	0
150	4911.826365571147	1056.761987210163	0
151	5401.255756038971	1054.550010056021	0
152	5401.255753248897	1054.550010122656	0
153	5402.143921225934	1055.012724772864	0
154	5401.256393569687	1054.549759066675	0
155	5402.143977732894	1055.012730751374	0
156	5402.143922516803	1055.012722963802	0
157	5679.362703434854	1062.93505230864	0
158	5679.362703435241	1062.935052309562	0
159	5680.29826564904	1062.576484851015	0
160	5679.363633117426	1062.935543579563	0
161	5680.298415507947	1062.576445231993	0
162	5680.298265650039	1062.576484850969	0
163	5756.119471193937	1055.640945593654	0
164	5756.119481451504	1055.640946250017	0
165	5757.121101230992	1055.682913896633	0
166	5756.119532292716	1055.640928081681	0
167	5757.121094055798	1055.682888813643	0
168	5757.121101230023	1055.682913896876	0
169	5758.109806905146	1055.848596052537	0
170	5758.109821204253	1055.848597945278	0
171	5759.095801998048	1056.030988817493	0
172	5758.109811326658	1055.848588892804	0
173	5759.095751788651	1056.031000972876	0
174	5759.095814236163	1056.030988961044	0
175	5760.098516357328	1056.080469411438	0
176	5760.098515683443	1056.080469410643	0
177	5761.088792402483	1056.237486571434	0
178	5760.098636344988	1056.080412633367	0
179	5761.088802735403	1056.237541836729	0
180	5761.088796176118	1056.237487185589	0
181	5765.082562145211	1056.638868360934	0
182	5765.082561832987	1056.638869607753	0
183	5767.088064293655	1056.505015477316	0
184	5765.0825713494	1056.638946032143	0
185	5767.088286168631	1056.505063756861	0
186	5767.088073227213	1056.505014711242	0
187	5837.137547136725	1051.147128474425	0
188	5837.137550396566	1051.146960591462	0
189	5838.139465146462	1051.202674338902	0
190	5837.137545428077	1051.147130668521	0
191	5838.139476646606	1051.202773944382	0
192	5838.139545592125	1051.202771456455	0
193	5841.123570203945	1051.612026995137	0
194	5841.123734979557	1051.612035941189	0
195	5842.117862747846	1051.740543649903	0
196	5841.123553827858	1051.612024705129	0
197	5842.117883671333	1051.740546417943	0
198	5842.117898216573	1051.740548074938	0
199	5897.92526354451	1058.509679617654	0
200	5897.925248091771	1058.509677933706	0
201	5898.915038373298	1058.677352252715	0
202	5897.925323129653	1058.509683492336	0
203	5898.915044235577	1058.677368813392	0
204	5898.915020737495	1058.677365293555	0
205	5899.904625092566	1058.853640861446	0
206	5898.914968526738	1058.67737537123	0
207	5899.90454388911	1058.853756527106	0
208	5899.904645476181	1058.853643830785	0
209	5900.908601004965	1058.899395721721	0
210	5900.908617457737	1058.899395197873	0
211	5901.911573494466	1058.935056641842	0
212	5900.908589067705	1058.89939815165	0
213	5901.911605740373	1058.935061657194	0
214	5901.911592725311	1058.935056104084	0
215	5904.922672608183	1058.781753284041	0
216	5904.922670782718	1058.781753773917	0
217	5905.925700954665	1058.806225987458	0
218	5904.92266384968	1058.781700349028	0
219	5905.925861492049	1058.806218407452	0
220	5905.925700955666	1058.806225987476	0
221	5927.020607126857	1059.294668857929	0
222	5927.020608906094	1059.294669868621	0
223	5928.017380462357	1059.159409607791	0
224	5927.020569008184	1059.294880163986	0
225	5928.017463402151	1059.159467365323	0
226	5928.017513535782	1059.159385380123	0
227	5938.885326640095	1057.017831294856	0
228	5938.885491672116	1057.017803027802	0
229	5939.878801970059	1056.865549257217	0
230	5938.885461049156	1057.017814108196	0
231	5939.878637877344	1056.865617545341	0
232	5939.878803543035	1056.865550641995	0
233	5959.902365903252	1054.883485072875	0
234	5959.902236974956	1054.883791779087	0
235	5960.906858944651	1054.854473809828	0
236	5959.902452939747	1054.883472059119	0
237	5960.906893664092	1054.854435519566	0
238	5960.906874910959	1054.854474801518	0
239	5961.911588637337	1054.905971841694	0
240	5961.911586208529	1054.905972579266	0
241	5962.914440884329	1054.980097255552	0
242	5961.91178877269	1054.905815713856	0
243	5962.914504980959	1054.979893016482	0
244	5962.914547937246	1054.98011036801	0
245	5984.758763361719	1058.430333764241	0
246	5984.758688974234	1058.430327274636	0
247	5985.757339759048	1058.538627917198	0
248	5984.758834197923	1058.430395452336	0
249	5985.757404896045	1058.538566943376	0
250	5985.757361560767	1058.538633438249	0
251	5987.70411023749	1059.035667792963	0
252	5987.704111071662	1059.035669085505	0
253	5988.675230567544	1059.297523319806	0
254	5987.704231366608	1059.035734976102	0
255	5988.67533206275	1059.297678323119	0
256	5988.675253071789	1059.297523237567	0
257	5989.67573378521	1059.394668822402	0
258	5989.675724258996	1059.394668567274	0
259	5990.678775987637	1059.413619012118	0
260	5989.675702070397	1059.394743276384	0
261	5990.678757017127	1059.41362862866	0
262	5990.678748128468	1059.413617382791	0
263	5992.683462663003	1059.438783847343	0
264	5992.683531937329	1059.438787381825	0
265	5993.683448931557	1059.504317372244	0
266	5992.683544461421	1059.438784621243	0
267	5993.683452435815	1059.504328336989	0
268	5993.683466556589	1059.504317900068	0
269	6510.58867535518	1073.506956630656	0
270	6510.58868777359	1073.506957064179	0
271	6511.138928017182	1072.672963777769	0
272	6510.5897138402	1073.506850535678	0
273	6511.139113195979	1072.673027085235	0
274	6511.138926707026	1072.672961858678	0
275	7278.947282130805	1058.053156009645	0
276	7278.947328495249	1058.053151014982	0
277	7279.916476500905	1057.796331544471	0
278	7278.947372556098	1058.053455610605	0
279	7279.916968972195	1057.796708053279	0
280	7279.916472303164	1057.796331541494	0
281	7282.792121608734	1056.896243949069	0
282	7282.792145796706	1056.896233873983	0
283	7283.781555461353	1056.723622277286	0
284	7282.792172426805	1056.896233207682	0
285	7283.781591738943	1056.723634740174	0
286	7283.781565628209	1056.72362179354	0
287	7323.577946630166	1050.845172331669	0
288	7323.577911033093	1050.845169004479	0
289	7324.581221110062	1050.798267625318	0
290	7323.57806667242	1050.845026338575	0
291	7324.581311937465	1050.798228646177	0
292	7324.581247897149	1050.798266471178	0
293	7335.641774545928	1050.200853903402	0
294	7335.641549183547	1050.201120265186	0
295	7336.641459095112	1050.312823891823	0
296	7335.641851017948	1050.200843783917	0
297	7336.641513652303	1050.312667438465	0
298	7336.64159717037	1050.312832177926	0
299	7344.655944306885	1051.069545086784	0
300	7344.65593891471	1051.069542191078	0
301	7345.653087659901	1051.204138957404	0
302	7344.655912079164	1051.069511728823	0
303	7345.653295489383	1051.204072149053	0
304	7345.653171007894	1051.204148486164	0
305	7377.528970997571	1055.667449664164	0
306	7377.528968339566	1055.667449625297	0
307	7379.468291440518	1056.195935650108	0
308	7377.529288950202	1055.667245047663	0
309	7379.468326858971	1056.195908390071	0
310	7379.468292490321	1056.195932565653	0
311	7383.410064003752	1057.000887183224	0
312	7383.41004807932	1057.000881987458	0
313	7384.396334220975	1057.194691904681	0
314	7383.410164270936	1057.000833803465	0
315	7384.39699333062	1057.19457909635	0
316	7384.396507657726	1057.19473246563	0
317	7388.2463905392	1058.384942253449	0
318	7388.246230295272	1058.384913601026	0
319	7389.238306824109	1058.563481896823	0
320	7388.246273364823	1058.385248634802	0
321	7389.238283791638	1058.564194625525	0
322	7389.238306823108	1058.56348189682	0
323	7406.177800835801	1061.03993355088	0
324	7406.177788355091	1061.039933743834	0
325	7407.163432645684	1061.247191313102	0
326	7406.177678862905	1061.039957590686	0
327	7407.163149873504	1061.248677479349	0
328	7407.163489622	1061.247198123794	0
329	7417.240967786069	1061.410553568252	0
330	7417.240891377051	1061.410542995931	0
331	7418.243705598312	1061.342847159487	0
332	7417.241087294322	1061.411501206212	0
333	7418.244096129072	1061.342946873913	0
334	7418.243882659219	1061.342856233003	0
335	7424.257985286806	1060.819920174469	0
336	7424.25805511141	1060.819912319951	0
337	7425.263845108384	1060.808677473521	0
338	7424.258998959689	1060.819761243973	0
339	7425.264081987045	1060.808661020309	0
340	7425.263999019709	1060.808672110308	0
341	7443.362072107226	1060.29426688736	0
342	7443.362062839813	1060.294265872381	0
343	7444.355729724137	1060.453956504259	0
344	7443.362164546877	1060.294119241343	0
345	7444.356179457993	1060.454035861398	0
346	7444.355785322954	1060.453962237289	0
347	7447.367588746903	1060.72116629371	0
348	7447.367588340818	1060.721166310319	0
349	7448.372201495065	1060.652964529827	0
350	7447.367776107574	1060.721498287366	0
351	7448.372250412547	1060.65316179468	0
352	7448.372395864457	1060.652958078622	0
353	7457.402405546667	1059.845778146475	0
354	7457.402432179882	1059.845774782704	0
355	7458.366019484249	1059.553486279494	0
356	7457.402767487685	1059.845855353834	0
357	7458.366162572527	1059.553624140272	0
358	7458.366019396322	1059.553486280146	0
359	7467.27981071375	1057.903007696427	0
360	7467.27982022692	1057.903005882557	0
361	7468.242811769876	1057.607246288808	0
362	7467.280782879698	1057.903307310409	0
363	7468.242757648601	1057.607245879786	0
364	7468.242825885121	1057.607242820264	0
365	7478.153076960116	1055.834885095768	0
366	7478.152585580197	1055.834861678583	0
367	7479.120562793867	1055.560283952217	0
368	7478.153078787827	1055.834886021165	0
369	7479.120772653772	1055.560291880939	0
370	7479.120546451082	1055.560288588038	0
371	7484.030551219395	1054.454451673221	0
372	7484.030627053715	1054.454437072176	0
373	7485.982961074909	1053.964604010027	0
374	7484.030451870191	1054.454445115205	0
375	7485.982780408112	1053.964470158977	0
376	7485.982932829173	1053.964613355929	0
377	7494.922229225707	1052.410600841112	0
378	7494.922317294539	1052.410592672557	0
379	7495.92256891143	1052.279366552897	0
380	7494.922652693607	1052.410294105194	0
381	7495.922391039941	1052.278092011102	0
382	7495.922446094246	1052.279368624164	0
383	7501.974150063359	1052.444767180402	0
384	7501.974211270155	1052.44476918481	0
385	7502.977757244524	1052.509088300811	0
386	7501.974064209184	1052.444582285904	0
387	7502.977747157418	1052.509041107699	0
388	7502.977805634173	1052.509091221962	0
389	7522.04109181837	1054.264553193343	0
390	7522.041112237273	1054.264555045207	0
391	7523.047501818099	1054.213016447363	0
392	7522.041993498535	1054.264810684933	0
393	7523.047667762936	1054.212952531873	0
394	7523.047640284803	1054.213027531521	0
395	7531.016657428514	1055.394980010215	0
396	7531.016646019889	1055.39497732096	0
397	7532.021773944592	1055.430536160734	0
398	7531.016571467488	1055.395012484016	0
399	7532.022583985099	1055.430773482098	0
400	7532.02183072669	1055.430543690171	0
401	7578.267441728078	1057.173071484345	0
402	7578.267422402992	1057.173072095397	0
403	7579.266558214442	1057.064283899931	0
404	7578.267559037387	1057.173352978329	0
405	7579.266653098284	1057.064381525374	0
406	7579.266592091446	1057.064282110296	0
407	7624.232256154573	1051.689911898564	0
408	7624.232256155556	1051.689911898375	0
409	7625.230664284605	1051.545243514271	0
410	7624.232277243822	1051.689918983071	0
411	7625.231450721212	1051.546330694813	0
412	7625.230678164367	1051.545236988642	0
413	7651.834837998107	1045.821746862181	0
414	7651.834691361093	1045.821495624572	0
415	7652.835252277662	1045.721827823244	0
416	7651.834828536505	1045.821745371762	0
417	7652.835326332062	1045.721941364946	0
418	7652.835468352145	1045.721917314271	0
419	7667.930764545661	1045.454847962722	0
420	7667.930814864294	1045.454843069754	0
421	7668.928276423823	1045.328424875971	0
422	7667.930950150656	1045.454837270627	0
423	7668.928344014184	1045.32836335718	0
424	7668.928281997703	1045.328424464732	0
425	7693.05903290425	1045.25191913316	0
426	7693.058789461182	1045.252029963979	0
427	7694.052541456806	1045.408712116726	0
428	7693.05898796797	1045.251901592739	0
429	7694.052525365603	1045.40870177256	0
430	7694.052564190422	1045.408711154343	0
431	7740.201610199339	1048.505762032295	0
432	7740.201586510428	1048.505757335865	0
433	7742.174290648536	1048.898821888825	0
434	7740.201941548583	1048.505437583912	0
435	7742.175148240694	1048.897752710483	0
436	7742.174181575212	1048.898805011588	0
437	7761.952802549109	1052.697180193408	0
438	7761.952656658961	1052.697168307123	0
439	7762.93024790558	1052.929187210392	0
440	7761.952863751256	1052.697195069227	0
441	7762.930753299455	1052.929399810152	0
442	7762.930267162868	1052.929190470395	0
443	7771.892867998076	1054.276478084014	0
444	7771.89284687803	1054.276480174529	0
445	7772.896986539245	1054.318818326783	0
446	7771.89311799286	1054.276886187422	0
447	7772.89714352271	1054.319080229187	0
448	7772.897018273048	1054.318818727752	0
449	7797.96623929913	1051.695161251597	0
450	7797.966266306537	1051.695164007511	0
451	7798.966865185756	1051.802995738793	0
452	7797.970787482631	1051.690003221613	0
453	7798.967108193538	1051.802880652948	0
454	7798.966914618873	1051.802990479673	0
455	7820.008747800115	1053.301976606941	0
456	7820.008735640145	1053.301974568142	0
457	7821.008818059396	1053.38912845242	0
458	7820.009108389966	1053.301955372228	0
459	7821.009011861808	1053.389134774104	0
460	7821.008899691557	1053.389136378262	0
461	7823.997386561228	1053.780483755158	0
462	7823.997390556577	1053.780484813995	0
463	7825.957254112849	1054.220316714589	0
464	7823.997795441353	1053.780517737315	0
465	7825.957261767053	1054.220389860448	0
466	7825.957202891106	1054.220300482727	0
467	7953.383060366914	1051.052468455279	0
468	7953.38307937774	1051.052416895193	0
469	7954.384683418228	1050.989659247314	0
470	7953.383130759137	1051.052466287402	0
471	7954.384835840774	1050.989721245921	0
472	7954.384650021417	1050.989664364317	0
473	7970.234728629925	1048.233150305364	0
474	7970.234743033243	1048.233144200539	0
475	7971.205749263561	1047.980582820322	0
476	7970.239742965861	1048.234899955756	0
477	7971.205928533887	1047.98058801111	0
478	7971.205722313953	1047.980580375191	0
479	7982.079441643236	1045.904257766142	0
480	7982.079489787677	1045.904235938548	0
481	7983.085963442156	1045.894539591206	0
482	7982.079568963707	1045.904002567108	0
483	7983.086091937086	1045.894429707634	0
484	7983.085971804245	1045.894537308055	0
485	8041.165324488495	1051.311921685369	0
486	8041.165289728866	1051.311983299867	0
487	8042.116021053094	1051.639851272518	0
488	8041.165358376671	1051.31192090751	0
489	8042.116143905811	1051.639916166007	0
490	8042.116052377343	1051.639853031837	0
491	8128.384876136026	1057.547824502838	0
492	8128.384869147181	1057.547820543428	0
493	8129.366463483335	1057.352453639557	0
494	8128.385128196411	1057.547914660818	0
495	8129.366650558572	1057.352769501952	0
496	8129.366513007904	1057.352444790222	0
497	8176.086329989424	1049.685337059688	0
498	8176.086251296254	1049.685347166952	0
499	8177.09018160967	1049.722042395437	0
500	8176.086358136423	1049.685273258793	0
501	8177.090302356462	1049.721985078213	0
502	8177.090336715743	1049.72203706369	0
503	8269.493531565609	1054.891265963777	0
504	8269.493585738068	1054.891252160837	0
505	8270.457044985795	1054.610871398879	0
506	8269.494069624741	1054.891483457015	0
507	8270.457699311643	1054.610998377604	0
508	8270.457130731877	1054.610878671228	0
509	8350.201684127731	1043.712932343798	0
510	8350.2017074944	1043.712936020015	0
511	8351.201145836734	1043.612459011608	0
512	8350.201616615537	1043.71287742338	0
513	8351.201496745914	1043.612110739663	0
514	8351.201086071105	1043.612460046878	0
515	8438.316041104514	1051.202793615802	0
516	8438.316078664986	1051.202796067573	0
517	8439.29679914697	1050.984366361207	0
518	8438.316551038339	1051.20305875145	0
519	8439.298182744018	1050.984099808594	0
520	8439.296872094395	1050.984388408704	0
521	8576.813307134895	1051.87066951442	0
522	8576.813351970568	1051.870657957939	0
523	8577.765532965306	1051.550313239985	0
524	8576.813556636398	1051.871273125366	0
525	8577.765597433159	1051.550388191699	0
526	8577.765483500976	1051.550335244853	0
527	8579.713239846789	1051.051418777833	0
528	8579.713270529499	1051.051412020977	0
529	8580.6857012248	1050.797387628186	0
530	8579.71363639743	1051.051595039004	0
531	8580.686488041005	1050.797349582672	0
532	8580.685644627611	1050.797400192618	0
533	8606.325114301231	1045.587294368729	0
534	8606.325197841301	1045.587284992419	0
535	8607.311562756184	1045.386051896464	0
536	8606.325285584167	1045.587222983924	0
537	8607.311946371048	1045.385736039404	0
538	8607.311628638841	1045.386042579709	0
539	8615.327034052887	1044.603932800903	0
540	8615.326932781347	1044.604072561476	0
541	8616.333605171289	1044.636309864782	0
542	8615.327062342687	1044.6039294499	0
543	8616.333640254694	1044.636155921579	0
544	8616.33368176409	1044.636306402382	0
545	8693.522772955428	1051.061272662668	0
546	8693.522854270021	1051.061275431358	0
547	8694.455763436283	1051.431101376827	0
548	8693.523327969884	1051.061252134695	0
549	8694.456094499907	1051.431154498907	0
550	8694.456135901564	1051.431146268473	0
551	8759.498015900132	1058.024366529897	0
552	8759.498027538795	1058.024354020654	0
553	8760.49824195936	1057.909080444314	0
554	8759.49821505342	1058.024772049029	0
555	8760.505398783283	1057.912101428629	0
556	8760.498263118556	1057.90908693963	0
557	8766.504968872061	1057.250591519994	0
558	8766.50499664734	1057.250589649734	0
559	8767.469261308433	1056.972068223534	0
560	8766.505156605968	1057.250660003475	0
561	8767.468986140926	1056.972106013459	0
562	8767.469213690198	1056.972074963189	0
563	8792.467874273938	1053.720024663676	0
564	8792.46766825582	1053.720030401002	0
565	8793.474466596994	1053.77919388744	0
566	8792.468141102583	1053.719709194447	0
567	8793.474725702679	1053.779043437801	0
568	8793.474449086971	1053.779192330086	0
569	8799.483276057948	1054.460375752379	0
570	8799.483245631269	1054.460371475489	0
571	8800.478948775084	1054.600354762493	0
572	8799.483929913096	1054.46016288286	0
573	8800.479932509914	1054.600047836147	0
574	8800.479130056247	1054.600363148359	0
575	8853.439646760167	1061.470959137132	0
576	8853.439633433351	1061.47094082246	0
577	8854.417828425723	1061.731212011298	0
578	8853.440110783691	1061.470745092332	0
579	8854.418858257952	1061.731677414941	0
580	8854.417829806351	1061.731206491377	0
581	8857.435686266608	1062.074445242926	0
582	8857.435707415098	1062.074447986032	0
583	8858.429623559094	1061.887050535739	0
584	8857.43669870023	1062.075587234287	0
585	8858.431958021591	1061.886924335855	0
586	8858.429723847139	1061.887050775008	0
587	8861.446509798528	1061.791150376827	0
588	8861.446516456355	1061.791151861557	0
589	8862.446646575059	1061.703814580694	0
590	8861.446561550036	1061.791263504928	0
591	8862.447444810334	1061.703901856545	0
592	8862.44663460789	1061.703820569089	0
593	8923.727407423576	1058.261951733771	0
594	8923.727464212778	1058.261952393054	0
595	8924.725583350162	1058.127504848308	0
596	8923.731180961389	1058.26209555646	0
597	8924.728993698838	1058.127660061939	0
598	8924.72560626186	1058.127504106211	0
599	8939.851528259784	1058.038600408144	0
600	8939.851551425163	1058.038593004521	0
601	8940.828457468569	1057.797947109261	0
602	8939.85272246406	1058.03866406076	0
603	8940.829661182965	1057.798176747438	0
604	8940.828388064629	1057.797964163671	0
605	8983.025661733072	1053.025583530186	0
606	8983.025319728536	1053.025638634067	0
607	8983.976174217421	1052.692973036587	0
608	8983.026223672232	1053.026059629362	0
609	8983.977113278812	1052.692986948394	0
610	8983.97635003669	1052.692973489451	0
611	8988.978066898157	1051.714706893889	0
612	8988.978151703863	1051.714710782259	0
613	8989.935961124824	1051.360335803908	0
614	8988.998277375164	1051.717494028478	0
615	8989.936784961728	1051.360197072586	0
616	8989.935961125813	1051.360335803761	0
617	9020.725969749252	1047.571003449634	0
618	9020.727100380262	1047.570829885632	0
619	9021.685378055596	1047.052474283113	0
620	9020.724207594867	1047.573450996972	0
621	9021.701568253302	1047.055734386538	0
622	9021.684913112334	1047.052910599608	0
623	9023.97675779406	1046.772094862602	0
624	9023.978681224979	1046.771205049733	0
625	9025.15714043944	1046.369999308165	0
626	9023.960087434192	1046.782628469164	0
627	9025.155395501091	1046.369899571372	0
628	9025.157511267616	1046.369647444687	0
629	9028.836565663785	1046.094338550862	0
630	9028.838887292633	1046.094243998437	0
631	9029.982699297751	1046.172161184152	0
632	9029.953706304919	1046.169016844836	0
633	9033.401931305543	1047.131534151936	0
634	9033.401931304597	1047.131534151611	0
635	9033.439479974983	1047.154108427368	0
636	9033.439064710172	1047.153905540215	0
637	9037.751939531305	1047.760685040914	0
638	9037.747529670714	1047.759869217358	0
639	9038.611027928897	1048.271826173353	0
640	9037.79044750984	1047.772667443303	0
641	9038.611457045557	1048.273376719277	0
642	9038.611090820768	1048.27182073096	0
643	9046.202571868087	1048.963687980787	0
644	9046.202503133571	1048.963691917537	0
645	9047.230244404598	1048.974997633552	0
646	9046.185470143855	1048.973737656409	0
647	9047.231648252149	1048.975741331677	0
648	9047.231272012439	1048.975154031689	0
649	9074.78873135084	1047.47035260267	0
650	9074.789436865336	1047.470435356755	0
651	9075.796754632565	1047.610100418541	0
652	9074.789031486313	1047.470333016331	0
653	9075.795375323833	1047.61025329445	0
654	9075.79625298774	1047.610071773024	0
655	9087.95927049192	1047.140952513082	0
656	9087.959279193197	1047.140952231982	0
657	9088.953013867103	1047.281692533262	0
658	9087.959759040785	1047.140769243146	0
659	9088.952085940902	1047.281690771557	0
660	9088.952863621564	1047.281679877189	0
661	9118.26373657845	1047.092743777176	0
662	9118.264499335288	1047.09278343878	0
663	9119.275073481858	1047.110990724125	0
664	9118.262672330467	1047.092591680772	0
665	9119.274041907451	1047.110669093952	0
666	9119.275081915483	1047.110993292426	0
667	9126.351795464398	1047.464414108824	0
668	9126.322545102223	1047.455051458757	0
669	9126.380765546784	1047.4735577278	0
670	9126.352097478273	1047.464463125186	0
671	9136.285695227758	1049.855720407812	0
672	9136.285499079984	1049.855644878934	0
673	9137.273887391479	1050.01560183389	0
674	9136.28898578561	1049.856529396033	0
675	9137.274317403235	1050.015763653831	0
676	9137.273925073581	1050.015606295614	0
677	9143.259972696687	1050.838173484705	0
678	9143.259984236262	1050.838173530589	0
679	9144.261423980521	1050.930947159392	0
680	9143.260958846324	1050.840678289625	0
681	9144.25012130707	1050.948137915852	0
682	9144.261468201805	1050.930943211328	0
683	9163.379968678526	1050.179416693933	0
684	9163.378628740262	1050.179402169905	0
685	9164.355469409244	1049.908255532828	0
686	9163.380021948778	1050.17949677725	0
687	9164.35750982525	1049.908670967628	0
688	9164.357441377175	1049.908667123703	0
689	9195.83347234818	1052.589506128982	0
690	9195.744093310352	1052.605623749224	0
691	9196.021705071196	1052.547187493751	0
692	9195.835302475269	1052.590059782741	0
693	9198.909874085375	1053.513440757178	0
694	9198.909877603955	1053.513441120941	0
695	9199.745920360798	1054.090723046121	0
696	9198.927415459346	1053.515842956892	0
697	9199.753959737547	1054.092646979916	0
698	9199.745968621832	1054.090767686552	0
699	9208.648870108629	1055.894619284774	0
700	9208.648243299884	1055.894442781515	0
701	9209.613738543881	1056.176406439899	0
702	9208.651052666663	1055.894720483371	0
703	9209.616082077626	1056.176879376777	0
704	9209.613610139195	1056.17638344229	0
705	9267.812647596402	1062.4760029125	0
706	9267.812600503907	1062.475999408979	0
707	9268.793744721246	1062.258999595825	0
708	9267.814829169136	1062.476555580192	0
709	9268.793846873245	1062.259033713547	0
710	9268.793723323572	1062.258999735422	0
711	9274.844297027641	1061.930336676063	0
712	9274.844358656517	1061.930345540478	0
713	9275.837978877751	1061.751614564961	0
714	9274.851978773751	1061.931558195973	0
715	9275.838644158917	1061.751695669618	0
716	9275.83790719195	1061.751622399807	0
717	9305.740914442023	1056.738773622616	0
718	9305.740927840619	1056.738761572065	0
719	9307.760762932796	1056.8842511989	0
720	9305.741686710047	1056.738461513733	0
721	9307.7620295456	1056.883870699689	0
722	9307.760734185587	1056.884244060388	0
723	9326.86909667448	1058.163058250104	0
724	9326.868781727189	1058.163092497698	0
725	9327.865762400159	1058.310990390238	0
726	9326.869085504097	1058.163062932332	0
727	9327.867798080377	1058.311036108848	0
728	9327.865624626615	1058.310982182741	0
729	9371.204217036247	1061.850702792902	0
730	9371.202908959322	1061.850367971112	0
731	9372.109152786379	1061.40601720398	0
732	9371.20431111345	1061.85070450699	0
733	9372.109660992492	1061.406013737866	0
734	9372.109097973414	1061.40603314355	0
735	9427.225588930929	1054.713936150826	0
736	9427.224882553181	1054.714031473638	0
737	9428.014170792712	1054.082372139395	0
738	9427.226261761152	1054.714309206169	0
739	9428.017858918107	1054.082339997418	0
740	9428.014665387453	1054.082532938344	0
741	9469.448480953572	1048.309503247056	0
742	9469.450410107083	1048.309427114659	0
743	9469.57888652676	1048.305179858428	0
744	9469.579663396144	1048.305137305102	0
745	9484.130682276525	1048.809081285038	0
746	9484.12614227909	1048.808967207944	0
747	9485.069347494278	1049.138543714634	0
748	9484.130458038662	1048.809085586089	0
749	9485.074089164951	1049.139002497831	0
750	9485.069927755338	1049.138578018728	0
751	9518.316390784004	1052.166528912356	0
752	9518.316085610246	1052.166476572448	0
753	9520.326014998167	1052.06858082923	0
754	9518.317618760264	1052.166806750477	0
755	9520.327030631957	1052.068919756203	0
756	9520.32612162417	1052.068592363231	0
757	9548.508546740628	1050.820737658263	0
758	9548.50845635167	1050.820738446992	0
759	9549.477056712136	1050.541386702229	0
760	9548.508696885887	1050.820761104986	0
761	9549.47757309911	1050.541354835776	0
762	9549.477056107826	1050.541384752587	0
763	9601.891225857009	1051.036809417415	0
764	9601.891125236047	1051.036815929811	0
765	9602.891125935377	1050.913690230464	0
766	9601.893472413305	1051.037505801818	0
767	9602.891784357385	1050.913925518665	0
768	9602.891509864294	1050.913674970587	0
769	9613.670610547799	1048.206735444564	0
770	9613.670552194877	1048.206743494286	0
771	9614.657877622105	1048.003120700424	0
772	9613.67604723522	1048.206270143537	0
773	9614.658794992731	1048.003008952724	0
774	9614.6576838582	1048.003145292005	0
775	9625.721643203957	1046.555505543217	0
776	9625.72177089155	1046.555501943459	0
777	9626.647135120553	1046.176314916365	0
778	9625.722111969102	1046.55547344257	0
779	9626.644274855224	1046.175408388999	0
780	9626.647190656398	1046.176319264002	0
781	9653.053196556033	1046.2873431222	0
782	9653.053303669472	1046.28738158323	0
783	9653.985092844836	1046.578269827701	0
784	9653.055082015084	1046.287437499657	0
785	9653.984200399675	1046.57764929983	0
786	9653.98439076031	1046.577816098757	0
787	9681.009239181389	1050.339551624335	0
788	9681.008307547923	1050.339707409211	0
789	9681.968049394665	1050.634910482469	0
790	9681.009235764745	1050.339546087848	0
791	9681.969101224255	1050.634940735823	0
792	9681.968156244904	1050.634920286364	0
793	9712.879092230403	1056.126162050325	0
794	9712.879286531133	1056.126181039013	0
795	9713.882767310428	1055.9885073048	0
796	9712.880078269956	1056.126430313889	0
797	9713.886041404485	1055.988832377941	0
798	9713.882769299726	1055.988514594049	0
799	9738.191476099959	1054.859549975127	0
800	9738.19201289167	1054.859584987957	0
801	9739.186113911654	1054.637382238478	0
802	9738.192353372126	1054.860232740822	0
803	9739.186741839691	1054.637332358666	0
804	9739.186314891016	1054.637363147088	0
805	9791.803833946611	1050.209129480429	0
806	9791.803889181474	1050.209127676105	0
807	9792.742058888356	1049.827402059222	0
808	9791.807718810887	1050.209721990326	0
809	9792.744073992471	1049.827401820257	0
810	9792.74141932573	1049.827340663618	0
811	9797.666486550661	1048.624357939804	0
812	9797.666817127658	1048.62436908843	0
813	9798.58528598986	1048.146679702479	0
814	9797.667435332589	1048.624460629134	0
815	9798.592131992811	1048.143392649902	0
816	9798.585352281032	1048.146687410781	0
817	9801.621774713787	1047.783291871643	0
818	9801.621853025094	1047.7831451565	0
819	9802.639220337343	1047.87529124565	0
820	9801.621652924927	1047.783297140944	0
821	9802.639249361906	1047.875448711274	0
822	9801.629003100228	1047.781676138595	0
823	9802.645703456215	1047.874747147846	0
824	9802.640084384559	1047.875588508463	0
825	9862.854639181736	1055.057259143999	0
826	9862.854805467945	1055.057277152004	0
827	9863.705318452419	1055.616253029657	0
828	9862.858101438995	1055.057106279351	0
829	9863.709358168622	1055.617420003979	0
830	9863.705037325373	1055.616262187302	0
831	9873.316492642687	1056.055564034299	0
832	9873.315672146029	1056.05554727445	0
833	9874.329490146132	1055.903332318657	0
834	9873.314305942537	1056.056274275596	0
835	9874.328480229686	1055.903968858645	0
836	9874.327246957342	1055.903964885875	0
837	9887.010959398336	1056.311293725767	0
838	9887.016727003838	1056.311515979408	0
839	9887.623678526686	1056.35470677751	0
840	9887.62367852768	1056.354706777611	0
841	9917.819590695626	1059.272604855068	0
842	9917.826069083882	1059.274156068878	0
843	9918.314476347005	1060.16398929586	0
844	9917.850126589474	1059.270966709546	0
845	9918.307829551619	1060.160920138361	0
846	9918.31330760009	1060.161429169563	0
847	9935.386221166049	1062.890088396007	0
848	9935.406763934023	1062.88420271024	0
849	9927.180128191212	1068.739473628746	0
850	9927.036572625448	1068.808067161428	0
851	9925.896210801333	1069.265574259297	0
852	9925.894145126371	1069.26654943156	0
853	9926.865366398246	1069.613756834009	0
854	9926.865366399144	1069.613756833571	0
855	9927.255004650429	1068.72063424965	0
856	9927.153715350405	1068.7599729432	0
857	9937.291306201423	1062.13650741693	0
858	9937.292579449082	1062.136324403391	0
859	9959.388138902317	1055.875009254902	0
860	9959.390231408128	1055.874493521747	0
861	9960.393196711319	1056.184534365396	0
862	9959.351433308062	1055.892640751145	0
863	9960.350049488561	1056.199434097764	0
864	9960.362091206469	1056.19600731566	0
865	9979.514877451727	1053.527112603564	0
866	9979.518239385357	1053.525873453049	0
867	9980.453816828933	1053.073140979102	0
868	9979.514712350516	1053.527134901682	0
869	9980.4854240967	1053.084234732505	0
870	9980.485671952241	1053.084211171375	0
871	9996.376307783683	1051.324491566661	0
872	9996.364045818407	1051.323767012068	0
873	9997.406002503165	1051.179154022781	0
874	9996.375773710692	1051.324575645181	0
875	9997.409849580188	1051.179629366511	0
876	9997.409607015783	1051.179625162667	0
877	10002.63279798771	1050.9627957982	0
878	10002.61601830079	1050.967393798785	0
879	10003.65363046974	1050.855911445315	0
880	10002.63369387956	1050.962699653478	0
881	10003.65425115836	1050.85573922619	0
882	10003.65384620787	1050.855936545396	0
883	10004.66510295884	1050.615933203394	0
884	10004.66396270184	1050.616029107566	0
885	10005.63577972085	1050.310229651614	0
886	10004.66445791279	1050.615964403443	0
887	10005.64127999808	1050.313158534083	0
888	10005.64125266625	1050.313165191784	0
889	10008.63897604268	1049.669885338572	0
890	10008.6365558388	1049.670409141046	0
891	10009.56247375995	1049.166664692313	0
892	10008.64022218851	1049.669663984618	0
893	10009.56501910169	1049.168189968521	0
894	10009.56515688412	1049.168195460442	0
895	10021.72080418587	1047.626926692819	0
896	10021.71777329174	1047.626116598628	0
897	10022.72240857995	1047.386477594046	0
898	10021.72149143676	1047.626811225249	0
899	10022.72534661885	1047.387595931926	0
900	10022.72502245001	1047.387621873081	0
901	10028.85340710533	1047.120359309814	0
902	10028.84168992349	1047.116359786908	0
903	10029.84281280222	1046.921853395557	0
904	10028.85289517762	1047.120402442293	0
905	10029.84483390993	1046.922925000133	0
906	10029.84486908019	1046.922932341684	0
907	10054.04534111816	1050.509684733903	0
908	10054.02214359648	1050.508348803028	0
909	10055.00229731977	1050.851352813333	0
910	10054.04538890402	1050.509814546871	0
911	10055.00598038789	1050.850438350263	0
912	10055.0061041672	1050.850377969361	0
913	10088.94542597802	1056.973803572901	0
914	10088.94498473462	1056.97382633389	0
915	10089.77707742874	1057.549184490487	0
916	10088.94557580244	1056.973774838309	0
917	10089.77726820917	1057.548916589164	0
918	10089.77734203966	1057.548902859834	0
919	10237.21679738632	1058.282385989707	0
920	10237.21647887005	1058.282487469254	0
921	10238.20006507982	1058.059809467154	0
922	10237.21670980902	1058.282386726117	0
923	10238.20020156618	1058.059746955063	0
924	10238.20010756628	1058.059740221096	0
925	10245.11750754806	1056.62377336264	0
926	10245.11625680895	1056.62383329416	0
927	10246.08258879335	1056.335830550741	0
928	10245.11757871204	1056.623758547711	0
929	10246.08570209007	1056.335992338357	0
930	10246.08584990257	1056.335950221372	0
931	10267.93648502922	1052.586920544139	0
932	10267.9365364451	1052.586940449171	0
933	10268.91434706872	1052.348220034462	0
934	10267.93647947864	1052.586942257713	0
935	10268.91436594912	1052.348222457119	0
936	10268.91427981281	1052.348236382343	0
937	10272.86296842753	1051.539239250754	0
938	10272.86249822245	1051.53915158223	0
939	10273.83566775917	1051.299863306394	0
940	10272.86336083468	1051.53920046293	0
941	10273.8372840344	1051.300055594133	0
942	10273.83734697743	1051.3000460017	0
943	10312.89364464012	1047.407274059289	0
944	10312.88927741893	1047.405950870212	0
945	10313.88827462802	1047.532259457954	0
946	10312.89382199714	1047.407261618597	0
947	10313.88952755683	1047.532348975617	0
948	10313.88958999116	1047.532346649475	0
949	10454.4319427251	1051.535739843403	0
950	10454.43075266013	1051.535781368839	0
951	10455.34463006919	1051.943466859521	0
952	10454.43203003177	1051.535725115475	0
953	10455.34566378385	1051.943407949752	0
954	10455.34565378139	1051.943403931062	0
955	10535.76806076655	1047.415627224713	0
956	10535.76511588383	1047.415016247305	0
957	10536.77319225693	1047.37689435845	0
958	10535.76805980386	1047.415627830393	0
959	10536.77366867463	1047.377148998498	0
960	10536.77390443913	1047.377149189192	0
961	10539.76291395894	1047.800546234075	0
962	10539.76237026826	1047.800379702288	0
963	10540.76783792015	1047.858780041266	0
964	10539.76294263902	1047.800555912133	0
965	10540.76815733756	1047.858846353119	0
966	10540.7681088973	1047.858842756337	0
967	10557.55518628839	1051.285774551613	0
968	10557.55448054615	1051.285449979095	0
969	10559.40772535636	1052.097818369384	0
970	10557.55526693569	1051.285775170267	0
971	10559.40796098677	1052.096989152643	0
972	10559.40795411229	1052.09696663635	0
973	10594.25547852901	1057.451052736874	0
974	10594.25438258291	1057.451325419514	0
975	10595.23370180112	1057.662966945734	0
976	10594.25546492594	1057.451056748728	0
977	10595.23875000217	1057.662477781115	0
978	10595.23874978705	1057.662477781993	0
979	10639.32011093537	1062.52692700553	0
980	10639.32005624984	1062.526960590789	0
981	10640.3230522145	1062.600407277922	0
982	10639.32011018665	1062.526924750541	0
983	10640.32368996815	1062.600064564863	0
984	10640.3239108147	1062.600062740252	0
985	10683.57174921252	1060.293539310225	0
986	10683.5715079012	1060.293739988057	0
987	10684.55453580973	1060.0714792164	0
988	10683.57174921335	1060.293539309667	0
989	10684.55466324496	1060.071431733492	0
990	10684.55467280797	1060.071430828242	0
991	10686.53032278236	1059.676354132375	0
992	10686.52965527211	1059.676554122133	0
993	10687.46168077564	1059.29984618286	0
994	10686.53042720917	1059.676363016871	0
995	10687.46336650021	1059.300980110767	0
996	10687.46316967855	1059.300979613618	0
997	10731.27906617679	1052.73988980281	0
998	10731.27751364766	1052.739568153444	0
999	10732.26237297869	1052.597327950453	0
1000	10731.27904477718	1052.739889941923	0
1001	10732.27391977907	1052.598095426979	0
1002	10732.2738129041	1052.59810481205	0
1003	10742.24633108211	1051.189481390344	0
1004	10742.24569752597	1051.189172777083	0
1005	10743.22791239002	1050.98036059165	0
1006	10742.24634604766	1051.189479714876	0
1007	10743.22941027807	1050.980762602095	0
1008	10743.22942184085	1050.980760883492	0
1009	10755.32726379335	1051.187940782427	0
1010	10755.32413233214	1051.186780640753	0
1011	10756.32398962438	1051.358971194303	0
1012	10755.32729070903	1051.187942182079	0
1013	10756.32414101682	1051.358998608443	0
1014	10756.32391635746	1051.358985784387	0
1015	10764.27695965082	1052.620687977939	0
1016	10764.27619564363	1052.620652792646	0
1017	10765.2363188148	1052.926580064084	0
1018	10764.2770103998	1052.620694203335	0
1019	10765.23685320491	1052.926478579197	0
1020	10765.23672565984	1052.926481083717	0
1021	10970.08020996017	1060.716804692221	0
1022	10970.07870813482	1060.717270933172	0
1023	10971.08135706073	1060.808702770696	0
1024	10970.08028438189	1060.716797622626	0
1025	10971.08185757991	1060.808383908334	0
1026	10971.08137004606	1060.808702859444	0
1027	11010.9479531261	1055.402142639235	0
1028	11010.94765866274	1055.402221743069	0
1029	11011.93524419757	1055.228738121183	0
1030	11010.94796763817	1055.402142757464	0
1031	11011.9355590825	1055.228680949759	0
1032	11011.93542798008	1055.228689011151	0
1033	11015.94801596539	1054.763275619673	0
1034	11015.94808748023	1054.763442500554	0
1035	11016.84397210719	1054.315420992045	0
1036	11015.94826408146	1054.76323134933	0
1037	11016.87070978256	1054.339707035663	0
1038	11016.87073749212	1054.339712699948	0
1039	11024.73234276186	1052.583186636366	0
1040	11024.73192305979	1052.583094462999	0
1041	11025.7241853506	1052.421681485171	0
1042	11024.73244259076	1052.583179969862	0
1043	11025.72437936614	1052.421689929524	0
1044	11025.7244178528	1052.421681700785	0
1045	11026.72545312046	1052.30039050842	0
1046	11026.72546502941	1052.300442526084	0
1047	11028.65037139659	1051.721128522107	0
1048	11026.72542950612	1052.300392238435	0
1049	11028.65128015294	1051.721291772227	0
1050	11028.65129913747	1051.721289099161	0
1051	11059.57774939235	1047.299410500437	0
1052	11059.57746500252	1047.299363847173	0
1053	11060.58504657674	1047.282668663061	0
1054	11059.57783193856	1047.299410215159	0
1055	11060.58775386771	1047.283097498385	0
1056	11060.58776484701	1047.283096683861	0
1057	11067.61442839085	1046.614273020621	0
1058	11067.61438520878	1046.614174098736	0
1059	11068.6159286759	1046.508441778087	0
1060	11067.61449967744	1046.614273009274	0
1061	11068.61587960302	1046.508477120336	0
1062	11068.61594627692	1046.508469950748	0
1063	11076.67881408331	1046.518394390692	0
1064	11076.67865684175	1046.518364011788	0
1065	11077.68406802276	1046.476895069151	0
1066	11076.67862683767	1046.518398751815	0
1067	11077.68569886127	1046.47835208428	0
1068	11077.68563333057	1046.47835777679	0
1069	11099.68693132773	1049.34911696065	0
1070	11099.68671086327	1049.349006209937	0
1071	11100.68143770512	1049.471940774405	0
1072	11099.68692712795	1049.349115736692	0
1073	11100.68176359209	1049.472038439074	0
1074	11100.68176359113	1049.472038438787	0
1075	11107.5312566363	1051.195479098018	0
1076	11107.53112703406	1051.195517981542	0
1077	11108.5142636884	1051.408563935463	0
1078	11107.53129234103	1051.195481497026	0
1079	11108.51447919025	1051.408466488042	0
1080	11108.51444914927	1051.408475173973	0
1081	11155.60011344506	1056.255306179168	0
1082	11155.60004791579	1056.255764409353	0
1083	11156.60542391561	1056.220364145207	0
1084	11155.60015102704	1056.255307672355	0
1085	11156.60565599313	1056.220217786051	0
1086	11156.60564316643	1056.220218260284	0
1087	11158.61986819567	1056.211353833281	0
1088	11158.6198373119	1056.211623284513	0
1089	11159.61891828832	1056.084875259405	0
1090	11158.61982301838	1056.211356982266	0
1091	11159.61997566059	1056.084630004068	0
1092	11159.62002712119	1056.084626777495	0
1093	11164.6013089815	1055.335624008393	0
1094	11164.60102546437	1055.335701884703	0
1095	11165.57227918861	1055.055379554569	0
1096	11164.60123886784	1055.335640040414	0
1097	11165.57228975444	1055.055393186364	0
1098	11165.57225169211	1055.055400809707	0
1099	11174.57197295336	1054.007435614682	0
1100	11174.57156001004	1054.007365931126	0
1101	11175.56488410273	1053.859389510747	0
1102	11174.57199889109	1054.007436152105	0
1103	11175.56701302843	1053.86102254177	0
1104	11175.56698546702	1053.861034499829	0
1105	11177.58270641541	1053.825111362602	0
1106	11177.58242703866	1053.824905760632	0
1107	11178.58866348449	1053.863018920871	0
1108	11177.5827425011	1053.825112110741	0
1109	11178.58908158202	1053.863151582193	0
1110	11178.58916356403	1053.863159162596	0
1111	11189.615313544	1054.899764143241	0
1112	11189.6151497022	1054.899737638025	0
1113	11190.6023706245	1055.1031606672	0
1114	11189.61521740336	1054.899755319774	0
1115	11190.60231527684	1055.10299686774	0
1116	11190.60240332	1055.103010540834	0
1117	11193.61157575483	1055.346827744179	0
1118	11193.61153917735	1055.346847245376	0
1119	11194.60443647402	1055.504721962699	0
1120	11193.61157338045	1055.346820433256	0
1121	11194.60481970272	1055.504381126595	0
1122	11194.60479012352	1055.504374286007	0
1123	11229.66046513227	1051.688957695699	0
1124	11229.66022180757	1051.68858075426	0
1125	11230.66542587795	1051.697939167603	0
1126	11229.66049837944	1051.688956126004	0
1127	11230.66552542695	1051.697975778649	0
1128	11230.66548904924	1051.697974347288	0
1129	11255.75832930594	1053.528082980704	0
1130	11255.75828862117	1053.528069450506	0
1131	11256.7449783426	1053.738699955353	0
1132	11255.75833765118	1053.52808271189	0
1133	11256.74490579834	1053.738719150238	0
1134	11256.74501644184	1053.738737061022	0
1135	11258.70848524002	1054.171704283596	0
1136	11258.7084266415	1054.171695606125	0
1137	11259.68146408083	1054.42169849363	0
1138	11258.70849815698	1054.171706992475	0
1139	11259.68151461528	1054.421695613718	0
1140	11259.68145888357	1054.421684051292	0
1141	11269.51182583491	1056.566444841664	0
1142	11269.50877781919	1056.569161210699	0
1143	11270.50823503002	1056.647900201345	0
1144	11269.51182285614	1056.566450446062	0
1145	11270.50920489832	1056.647358909777	0
1146	11270.50944671528	1056.647381681761	0
1147	11333.76814444188	1059.290921364564	0
1148	11333.76758310646	1059.291021762879	0
1149	11334.77339218264	1059.317736086901	0
1150	11333.7681237969	1059.290915057571	0
1151	11334.77337492207	1059.317480978365	0
1152	11334.7733612277	1059.317480409344	0
1153	11344.76108694897	1058.078975134838	0
1154	11344.76109114569	1058.078972084142	0
1155	11345.75816401503	1057.970930695666	0
1156	11344.76143938639	1058.079029098198	0
1157	11345.76144737456	1057.973315455485	0
1158	11345.76145271952	1057.973315451335	0
1159	11358.81402571036	1058.737282481625	0
1160	11358.81394778203	1058.73743265436	0
1161	11359.81770632324	1058.691193136395	0
1162	11358.81404021577	1058.73728242731	0
1163	11359.81783985754	1058.691213456902	0
1164	11359.81785344278	1058.691214379845	0
1165	11361.82663178362	1058.801299818632	0
1166	11361.82675509859	1058.801312205653	0
1167	11362.82553212479	1058.895934362716	0
1168	11361.8266454424	1058.80129879547	0
1169	11362.82576445979	1058.895588332389	0
1170	11362.8256944148	1058.895591237814	0
1171	11378.90829245544	1059.600162069083	0
1172	11378.90815747519	1059.600501951688	0
1173	11379.89515937975	1059.402664547367	0
1174	11378.90835585337	1059.600164788211	0
1175	11379.89542491862	1059.40258926463	0
1176	11379.89546845556	1059.40258857501	0
1177	11428.87481153575	1053.203478376031	0
1178	11428.87477961011	1053.203460573273	0
1179	11430.87915280674	1053.038771687997	0
1180	11428.87480253558	1053.20347840572	0
1181	11430.87994913896	1053.039246527795	0
1182	11430.88005866035	1053.039246802428	0
1183	11432.89600872739	1052.982306286498	0
1184	11432.89627632766	1052.981710118274	0
1185	11433.9030316615	1053.00119868021	0
1186	11432.89600872839	1052.982306286474	0
1187	11433.90300078117	1053.001285857798	0
1188	11433.90310475162	1053.001299128777	0
1189	11435.90726933678	1053.219942638363	0
1190	11435.90731492855	1053.21982488896	0
1191	11437.90262391338	1053.4993850859	0
1192	11435.9072393436	1053.219935378559	0
1193	11437.90326484818	1053.500809812757	0
1194	11437.90328326137	1053.500810095295	0
1195	11439.88497443355	1053.856318472941	0
1196	11439.88489612938	1053.856260010067	0
1197	11440.85864853623	1054.108174674013	0
1198	11439.88497850959	1053.856319066684	0
1199	11440.85921955693	1054.108296815652	0
1200	11440.85914652681	1054.108278927637	0
1201	11442.82369140311	1054.538202577332	0
1202	11442.82365424249	1054.538249493861	0
1203	11444.80354667164	1054.899444838358	0
1204	11442.82378632992	1054.538223774006	0
1205	11444.80337373133	1054.899403655658	0
1206	11444.80357613989	1054.899448411701	0
1207	11454.71486239406	1056.664605356814	0
1208	11454.7146741383	1056.664683666103	0
1209	11455.71403452324	1056.782799437021	0
1210	11454.71481529961	1056.664594308095	0
1211	11455.71419060415	1056.782811111491	0
1212	11455.71418235299	1056.782809423937	0
1213	11463.63602998259	1058.248707431045	0
1214	11463.63484781585	1058.24879304507	0
1215	11465.60182638736	1058.689535380373	0
1216	11463.63602759092	1058.248706280815	0
1217	11465.60187762303	1058.689433066513	0
1218	11465.60191155738	1058.68943614527	0
1219	11494.64521149996	1061.704925056049	0
1220	11494.64494660637	1061.705089725888	0
1221	11496.64072842757	1061.971814504377	0
1222	11494.64531939028	1061.704928147061	0
1223	11496.64151621024	1061.970545172928	0
1224	11496.64157343621	1061.970557042581	0
1225	11502.67877572832	1062.064189468328	0
1226	11502.6787174643	1062.064222104692	0
1227	11503.6813145482	1062.132215463181	0
1228	11502.67892447786	1062.064184167028	0
1229	11503.68140480484	1062.131970613168	0
1230	11503.68144521415	1062.131963793775	0
1231	11514.72144897466	1061.294735684372	0
1232	11514.72144287676	1061.29474526139	0
1233	11515.72544453439	1061.299916625921	0
1234	11514.72143749134	1061.294737093034	0
1235	11515.72616044896	1061.299483165718	0
1236	11515.72616589783	1061.29948076317	0
1237	11518.70944041657	1060.823951554873	0
1238	11518.70905268262	1060.823926863635	0
1239	11519.71261580313	1060.759813164603	0
1240	11518.70946491724	1060.823948669163	0
1241	11519.71265559216	1060.759830977876	0
1242	11519.71261580397	1060.759813165142	0
1243	11522.7265340637	1060.629078694883	0
1244	11522.72652318358	1060.629087042541	0
1245	11523.71960959209	1060.475905796002	0
1246	11522.72653572337	1060.629079416512	0
1247	11523.71957638854	1060.475927386967	0
1248	11523.71963807271	1060.475921603282	0
1249	11555.77669052795	1057.702547445561	0
1250	11555.7756157212	1057.702225255585	0
1251	11556.77562004273	1057.581166925686	0
1252	11555.77671280658	1057.702556708952	0
1253	11556.77544579379	1057.581304102864	0
1254	11556.77554776626	1057.581315609026	0
1255	11567.83668534437	1058.54967589694	0
1256	11567.83582001324	1058.551216923348	0
1257	11569.82358729206	1058.215065102584	0
1258	11567.8366917909	1058.549679040431	0
1259	11569.82375797249	1058.214846463036	0
1260	11569.82385069541	1058.21484134277	0
1261	11589.79529860106	1055.561262219178	0
1262	11589.79556175955	1055.56121979152	0
1263	11590.7966143732	1055.49254065779	0
1264	11589.79546200663	1055.561246096405	0
1265	11590.79698602712	1055.492490348688	0
1266	11590.79703624529	1055.492486332753	0
1267	11612.7416526858	1052.392034084633	0
1268	11612.74166996425	1052.391976518701	0
1269	11613.74531708966	1052.302478445519	0
1270	11612.74177030612	1052.392018444153	0
1271	11613.74523937244	1052.302642003131	0
1272	11613.74522571409	1052.30263836901	0
1273	11618.77967776072	1052.06010435669	0
1274	11618.77835598215	1052.058623501456	0
1275	11619.78511045119	1052.09367451021	0
1276	11618.77965774235	1052.060107301517	0
1277	11619.78537844231	1052.093804381182	0
1278	11619.78540605144	1052.093802569049	0
1279	11629.79330935842	1053.283017024355	0
1280	11629.7934286044	1053.283105787567	0
1281	11630.79485809117	1053.319524097803	0
1282	11629.79338073021	1053.283014703896	0
1283	11630.80005073911	1053.319153704207	0
1284	11630.80007705666	1053.31915302482	0
1285	11640.86276275596	1053.48213520261	0
1286	11640.86271468896	1053.482117756749	0
1287	11641.86982392149	1053.472576190414	0
1288	11640.86288484086	1053.48214941377	0
1289	11641.86973010241	1053.47265401274	0
1290	11641.86972810186	1053.472653727313	0
1291	11642.87232871914	1053.566864163111	0
1292	11642.87235132196	1053.566821597894	0
1293	11643.87537965854	1053.624515327219	0
1294	11642.87237360276	1053.566870153003	0
1295	11643.87545292873	1053.625160763481	0
1296	11643.87545961639	1053.625162798344	0
1297	11660.79307365925	1056.117140639316	0
1298	11660.79302799512	1056.11712860498	0
1299	11661.78483134856	1056.283589977373	0
1300	11660.79310058255	1056.117145883791	0
1301	11661.78474358898	1056.283566149581	0
1302	11661.78474573049	1056.283566880432	0
1303	11668.77699963258	1057.073765143562	0
1304	11668.77682200618	1057.073644114062	0
1305	11669.76091762997	1057.288631693533	0
1306	11668.77700840294	1057.073764819463	0
1307	11669.76071453277	1057.288635644112	0
1308	11669.76068094404	1057.288629034867	0
1309	11673.72617183903	1057.966118496299	0
1310	11673.72675226784	1057.965922481937	0
1311	11674.70725888973	1058.184285123007	0
1312	11673.72627544002	1057.966138199494	0
1313	11674.70736749739	1058.184302169325	0
1314	11674.7073674964	1058.184302169195	0
1315	11687.50343746232	1060.877909821855	0
1316	11687.50368383574	1060.878169332409	0
1317	11688.50209978046	1060.990973378176	0
1318	11687.50352151364	1060.877928040847	0
1319	11688.50215212272	1060.990971256326	0
1320	11688.50214984586	1060.990972163823	0
1321	11691.4515299789	1061.643184409722	0
1322	11691.45108750715	1061.643235976066	0
1323	11692.44764742487	1061.77101828926	0
1324	11691.45156653002	1061.643190480804	0
1325	11692.4476336972	1061.770983031765	0
1326	11692.44771094131	1061.770997666828	0
1327	11697.41876311939	1062.516509121103	0
1328	11697.41878705959	1062.516558485655	0
1329	11698.42313489348	1062.587158190581	0
1330	11697.41873575628	1062.516505471197	0
1331	11698.42300836021	1062.587114655348	0
1332	11698.42310402496	1062.587116947551	0
1333	11700.41403919112	1062.853349198333	0
1334	11700.41403694813	1062.853385220784	0
1335	11702.39811133278	1063.175280505156	0
1336	11700.41416487741	1062.853361733497	0
1337	11702.39810377034	1063.175196359071	0
1338	11702.39815574673	1063.175198014765	0
1339	11744.56921488165	1065.503946129627	0
1340	11744.56877950575	1065.504089767876	0
1341	11745.5628719802	1065.674916811598	0
1342	11744.569262688	1065.503949633592	0
1343	11745.56295514365	1065.674761058257	0
1344	11745.56293816667	1065.674769729162	0
1345	11837.73985640071	1056.632609854629	0
1346	11837.73965006143	1056.63257131889	0
1347	11838.74107875552	1056.535446033784	0
1348	11837.73971891732	1056.632622320481	0
1349	11838.74107525268	1056.535491612594	0
1350	11838.74104077522	1056.535492177295	0
1351	11839.74480168753	1056.469799786571	0
1352	11839.74505876233	1056.469647483518	0
1353	11840.74957952154	1056.453954484637	0
1354	11839.74491507521	1056.469793347212	0
1355	11840.75123755159	1056.456816652621	0
1356	11840.75125600289	1056.456813038867	0
1357	11866.73620266568	1059.468448697701	0
1358	11866.73589357492	1059.468118710684	0
1359	11867.72178092781	1059.670813914794	0
1360	11866.73624303303	1059.468452100863	0
1361	11867.722068749	1059.670754742507	0
1362	11867.72205464487	1059.670749701903	0
1363	11873.72965629657	1060.281927347366	0
1364	11873.72962566042	1060.282154517136	0
1365	11874.73390736891	1060.338367494762	0
1366	11873.72981582428	1060.281934108254	0
1367	11874.73394067689	1060.338302510405	0
1368	11874.7339309318	1060.338301386783	0
1369	11882.78607149788	1060.125385019939	0
1370	11882.78702968608	1060.125867805931	0
1371	11883.79119582149	1060.065731894601	0
1372	11882.78609344924	1060.125385989522	0
1373	11883.79110360942	1060.065688941609	0
1374	11883.79113542446	1060.065689087345	0
1375	11906.6654387825	1056.41460092142	0
1376	11906.6656153042	1056.414559807077	0
1377	11907.66167845641	1056.290311132603	0
1378	11906.66542288401	1056.414606672048	0
1379	11907.66199619251	1056.290384386354	0
1380	11907.66199738972	1056.29038431161	0
1381	11943.82067498811	1054.049490838306	0
1382	11943.82076772107	1054.049429044633	0
1383	11944.82554210262	1054.053806041662	0
1384	11943.82061141676	1054.049482310236	0
1385	11944.82576144277	1054.053922978964	0
1386	11944.82581182682	1054.05392140554	0
1387	11946.83474538532	1054.186804736732	0
1388	11946.83459515288	1054.186757265347	0
1389	11947.84098690942	1054.199436999345	0
1390	11946.83470592604	1054.186805196985	0
1391	11947.84087671563	1054.199487909592	0
1392	11947.84102509965	1054.199501881459	0
1393	11962.78969742285	1056.323387990235	0
1394	11962.79063253063	1056.322267658381	0
1395	11963.77108298803	1056.541107214413	0
1396	11962.78966516103	1056.32338109197	0
1397	11963.77107606376	1056.541133169388	0
1398	11963.7710437581	1056.541132818991	0
1399	11970.71860891498	1057.67524521086	0
1400	11970.71875498011	1057.6752807978	0
1401	11971.72066759894	1057.776290968977	0
1402	11970.71885989953	1057.675287666314	0
1403	11971.72054260992	1057.776312792675	0
1404	11971.72053131981	1057.776316663592	0
1405	11974.65363350176	1058.497229894459	0
1406	11974.65374304273	1058.497284200211	0
1407	11975.64124895695	1058.680367112511	0
1408	11974.65359600313	1058.49722264077	0
1409	11975.6412204312	1058.680061509971	0
1410	11975.64124563134	1058.680063719486	0
1411	11998.48161894211	1062.382824061724	0
1412	11998.48179276766	1062.383114526668	0
1413	11999.48527726217	1062.405705137748	0
1414	11998.4816806953	1062.382835458882	0
1415	11999.48560075546	1062.405600562076	0
1416	11999.48560075646	1062.405600562131	0
1417	12008.51205621512	1063.126130144974	0
1418	12008.51208063131	1063.126192740395	0
1419	12009.51290876029	1063.029937965742	0
1420	12008.51216974539	1063.12613478761	0
1421	12009.51288052775	1063.029894916651	0
1422	12009.51281118118	1063.029894512958	0
1423	12094.68999989758	1055.440495629128	0
1424	12094.68975205478	1055.440342424562	0
1425	12095.6952045907	1055.417110388094	0
1426	12094.69001312913	1055.440494661023	0
1427	12095.69488389648	1055.417465759283	0
1428	12095.69489285522	1055.41746635553	0
1429	12148.82052057064	1059.832996581388	0
1430	12148.82053359375	1059.83297754361	0
1431	12149.82289779135	1059.801891361332	0
1432	12148.82052301438	1059.832996572652	0
1433	12149.82307481855	1059.802007464292	0
1434	12149.82303517812	1059.80200122683	0
1435	12177.62435833389	1064.381413433799	0
1436	12177.62449966432	1064.381488055291	0
1437	12178.6256241571	1064.444803627034	0
1438	12177.62441479087	1064.381406933621	0
1439	12178.62564606203	1064.444664272168	0
1440	12178.62566885904	1064.444669771018	0
1441	12296.86514156069	1056.087792774466	0
1442	12296.86532130368	1056.087599557421	0
1443	12297.85159516587	1056.265167167722	0
1444	12296.86511190663	1056.087792452307	0
1445	12297.85136706526	1056.265142367127	0
1446	12297.85140387531	1056.265136686465	0
1447	12334.97538229269	1055.933883608428	0
1448	12334.97541151834	1055.933767599508	0
1449	12335.95933334838	1056.133871596931	0
1450	12334.97535661211	1055.933879194001	0
1451	12335.95911893128	1056.133844312645	0
1452	12335.95919692876	1056.133853068759	0
1453	12367.0439316368	1057.578448202919	0
1454	12367.04424074467	1057.578490345358	0
1455	12368.04663135019	1057.600549267061	0
1456	12367.04401784363	1057.578454455282	0
1457	12368.04598826229	1057.600243377583	0
1458	12368.04610446116	1057.600244364999	0
1459	12411.12523525833	1053.892748084422	0
1460	12411.12535651898	1053.892765694534	0
1461	12412.13093869867	1053.930125684161	0
1462	12411.12693086391	1053.89062909299	0
1463	12412.13302877785	1053.928104769648	0
1464	12412.13098169436	1053.930134170335	0
1465	12446.0673537654	1058.107588212371	0
1466	12446.06747929259	1058.10759568248	0
1467	12447.02683295697	1058.42278051542	0
1468	12446.08038917345	1058.101863730451	0
1469	12447.02743704652	1058.422904170217	0
1470	12447.02748476796	1058.422907665386	0
1471	12485.32581634082	1062.725495693573	0
1472	12485.32576415647	1062.725488311403	0
1473	12485.50659351498	1062.73099440992	0
1474	12485.5066866855	1062.73099892958	0
1475	12535.17229086043	1064.466986166183	0
1476	12535.17229085943	1064.466986166209	0
1477	12536.12008994887	1064.130596716849	0
1478	12535.1737106057	1064.467079957717	0
1479	12536.1205185392	1064.130556149456	0
1480	12536.12021374353	1064.13059160801	0
1481	12569.244877278	1062.391747630048	0
1482	12569.24797281444	1062.391307406851	0
1483	12570.1249499781	1062.288290777396	0
1484	12569.55735538935	1062.35452229628	0
1485	12575.76357830887	1060.987884855202	0
1486	12575.76297509774	1060.987832825843	0
1487	12576.64729833038	1060.62677728421	0
1488	12575.76315764785	1060.987957264324	0
1489	12576.65946933664	1060.628762482561	0
1490	12576.65989931851	1060.628661534614	0
1491	12581.64965432236	1059.752847197018	0
1492	12581.64962452158	1059.752861591376	0
1493	12582.60443014941	1059.435036339982	0
1494	12581.64987084599	1059.752829684216	0
1495	12582.60734615021	1059.434931967876	0
1496	12582.60735455811	1059.434932030801	0
1497	12595.51721792398	1057.330383790533	0
1498	12595.51723066673	1057.330359163522	0
1499	12596.52230465576	1057.256142483689	0
1500	12595.51725339575	1057.330377589534	0
1501	12596.52256650028	1057.256063417081	0
1502	12596.52256649929	1057.256063417216	0
1503	12610.40700697835	1054.927568870243	0
1504	12610.40592194219	1054.927697438172	0
1505	12611.39394546251	1054.751804819722	0
1506	12610.40732215365	1054.927521101726	0
1507	12611.39482794457	1054.751830870643	0
1508	12611.39496653928	1054.751803182212	0
1509	12633.23438100419	1051.188697938976	0
1510	12633.23436495209	1051.188632049213	0
1511	12634.21602522659	1050.975665493574	0
1512	12633.23450012381	1051.188680865215	0
1513	12634.21643758846	1050.975772773123	0
1514	12634.21635275936	1050.975785663179	0
1515	12654.16630949262	1048.410134502541	0
1516	12654.16635207915	1048.410105039962	0
1517	12655.16264743192	1048.269989330275	0
1518	12654.1663155214	1048.410134858543	0
1519	12655.16280042105	1048.27003339275	0
1520	12655.16301411726	1048.270014415927	0
1521	12677.19377246846	1046.021491470028	0
1522	12677.19383961258	1046.021336110102	0
1523	12678.17762383612	1045.823557879721	0
1524	12677.19387220521	1046.021484599454	0
1525	12678.17814740505	1045.823997689758	0
1526	12678.17819238701	1045.824000184603	0
1527	12706.37521112623	1046.804932953552	0
1528	12706.37515969298	1046.804889319783	0
1529	12707.38109943521	1046.744578482898	0
1530	12706.37541288983	1046.804949046687	0
1531	12707.3806852968	1046.745084884924	0
1532	12707.38068609559	1046.745084877826	0
1533	12774.28589573747	1054.878100056781	0
1534	12774.28584380951	1054.878049570743	0
1535	12775.27953729946	1055.026160971733	0
1536	12774.28588711271	1054.878095380071	0
1537	12775.27954493433	1055.026173711829	0
1538	12775.27958951259	1055.026181443604	0
1539	12781.21286453503	1056.108629778407	0
1540	12781.21290586888	1056.10864285242	0
1541	12782.19493994441	1056.323274186784	0
1542	12781.21288905363	1056.108632459669	0
1543	12782.19497836872	1056.323236371597	0
1544	12782.19520758383	1056.323261043053	0
1545	12788.15477965811	1057.281040220023	0
1546	12788.155035142	1057.281219994974	0
1547	12789.15306599773	1057.388047297019	0
1548	12788.1548679303	1057.281045807659	0
1549	12789.15333583335	1057.387924327956	0
1550	12789.15338859579	1057.387928170219	0
1551	12803.23270118398	1057.340823419354	0
1552	12803.23310901556	1057.340943090598	0
1553	12804.23448036356	1057.276145091956	0
1554	12803.23282354544	1057.340821412423	0
1555	12804.23439211128	1057.276136442119	0
1556	12804.23444479455	1057.276123973246	0
1557	12825.28807516191	1055.709355257999	0
1558	12825.28808727577	1055.7093497267	0
1559	12826.29175904413	1055.652563165085	0
1560	12825.28820793517	1055.709319017511	0
1561	12826.29185634045	1055.652482616607	0
1562	12826.29175957757	1055.65256316867	0
1563	12892.25352707456	1062.736656862983	0
1564	12892.25231299935	1062.736709451705	0
1565	12893.20530991556	1063.0511352341	0
1566	12892.2534326765	1062.73665176405	0
1567	12893.20555817771	1063.051246797349	0
1568	12893.20533686931	1063.051129630068	0
1569	12953.51891584038	1066.542708432878	0
1570	12953.51654114085	1066.543053200467	0
1571	12953.89832464956	1066.487457076149	0
1572	12953.9031911606	1066.486755697166	0
1573	13067.23992288254	1057.228930088312	0
1574	13067.23988484541	1057.228933400676	0
1575	13068.24326981062	1057.247860316498	0
1576	13067.24015781342	1057.228923026148	0
1577	13068.24253347788	1057.247636306528	0
1578	13068.24313111271	1057.247861110471	0
1579	13105.2824131138	1061.119869832248	0
1580	13105.28243351659	1061.119867195375	0
1581	13106.28711236263	1061.140889528887	0
1582	13105.28223549927	1061.119858673586	0
1583	13106.29568747544	1061.141125658102	0
1584	13106.28677025237	1061.140876325882	0
1585	13132.96238272963	1062.220548520039	0
1586	13132.96253172786	1062.220536532521	0
1587	13133.34231565126	1062.201239677237	0
1588	13133.34911286726	1062.200700192824	0
1589	13185.56300266836	1054.237521291461	0
1590	13185.56302731002	1054.237121987112	0
1591	13186.447517176	1053.81488241944	0
1592	13185.56299320162	1054.237492397723	0
1593	13186.45026661214	1053.814365673373	0
1594	13186.45026661314	1053.814365673302	0
1595	13232.25488969398	1047.254673689242	0
1596	13232.25493396921	1047.254553535138	0
1597	13233.25380621897	1047.291100035981	0
1598	13232.25490381534	1047.254673820589	0
1599	13233.25628252299	1047.291325482495	0
1600	13233.25626849561	1047.291325356098	0
1601	13355.69528908256	1049.599359255562	0
1602	13355.69512665022	1049.599343097521	0
1603	13356.69142064827	1049.728725892493	0
1604	13355.69540821752	1049.599350988556	0
1605	13356.69151370093	1049.728690929734	0
1606	13356.69152955195	1049.728691054321	0
1607	13383.68933210036	1047.372184894149	0
1608	13383.68930427171	1047.37218114129	0
1609	13384.67832229561	1047.214775803731	0
1610	13383.6890483313	1047.372165444622	0
1611	13384.67838168811	1047.214766275885	0
1612	13384.67835573042	1047.214776919492	0
1613	13445.5769062903	1048.359170118882	0
1614	13445.58393729684	1048.359497087273	0
1615	13445.91470782747	1048.375115832273	0
1616	13445.910255215	1048.37490743811	0
1617	13493.60930333587	1052.650838362743	0
1618	13493.60848879182	1052.650663574347	0
1619	13494.59408814572	1052.87556812264	0
1620	13493.60918568187	1052.65082213622	0
1621	13494.59349103582	1052.874337874184	0
1622	13494.59347893033	1052.87433688575	0
1623	13539.6438538499	1056.673466408662	0
1624	13539.64280671298	1056.674076330974	0
1625	13540.61091264138	1056.937448786285	0
1626	13539.6438755802	1056.673470019742	0
1627	13540.61110125029	1056.937405465745	0
1628	13540.61097427471	1056.937440486897	0
1629	13683.16069849801	1037.318735990965	0
1630	13683.1378225733	1037.33123778653	0
1631	13683.18684641305	1037.299094924329	0
1632	13683.16069915667	1037.318737054686	0
1633	13691.26301325935	1036.878617772821	0
1634	13691.26315936075	1036.878601224721	0
1635	13692.25362789048	1036.717091286174	0
1636	13691.2630039418	1036.878619410097	0
1637	13692.25336625163	1036.717163900332	0
1638	13692.25338595737	1036.717161365809	0
1639	13721.26348070523	1034.154728786207	0
1640	13721.2631178085	1034.154652681059	0
1641	13722.25805958032	1034.016687807283	0
1642	13721.26358655141	1034.154727593548	0
1643	13722.25817294546	1034.016922200248	0
1644	13722.25817149557	1034.016921272133	0
1645	13852.61053725332	1039.797295985658	0
1646	13852.61030027133	1039.797238213246	0
1647	13853.60666487172	1039.907059931696	0
1648	13852.6105911479	1039.797298815978	0
1649	13853.60669343989	1039.907064691659	0
1650	13853.60673361078	1039.907067945415	0
1651	13980.67738513886	1050.112355950294	0
1652	13980.67731809613	1050.112407429646	0
1653	13981.66602858537	1050.286966711937	0
1654	13980.67738455119	1050.112356000924	0
1655	13981.66616947278	1050.286936411671	0
1656	13981.6660287953	1050.286959140683	0
1657	13997.75717884641	1050.38801968734	0
1658	13997.75730746018	1050.388272921396	0
1659	13998.7617557954	1050.398187230957	0
1660	13997.75730725439	1050.388009216649	0
1661	13998.76178071657	1050.39800427038	0
1662	13998.7617556916	1050.398010273594	0
1663	14017.54820782802	1046.929372543663	0
1664	14017.5482624307	1046.929368718301	0
1665	14018.53172372626	1046.731917307049	0
1666	14017.54830357386	1046.92935439172	0
1667	14018.53202027281	1046.731818059461	0
1668	14018.53175208648	1046.731914955986	0
1669	14024.41240760118	1045.401168772388	0
1670	14024.41222538197	1045.40116677361	0
1671	14025.39016520146	1045.168849706032	0
1672	14024.41235446506	1045.401178596432	0
1673	14025.39004485572	1045.168941707192	0
1674	14025.39015135635	1045.168852771827	0
1675	14035.3807784536	1044.104710366801	0
1676	14035.38002247776	1044.104171179365	0
1677	14036.3716042334	1043.946009121463	0
1678	14035.3807784545	1044.104710366351	0
1679	14036.37190746634	1043.946096120887	0
1680	14036.37188549312	1043.946096740112	0
1681	14048.43040490809	1043.775998949763	0
1682	14048.43036096227	1043.77598833118	0
1683	14050.42810464198	1043.987789858048	0
1684	14048.43046793214	1043.776109945426	0
1685	14050.42830008917	1043.987780633961	0
1686	14050.42826496938	1043.987781637037	0
1687	14051.43226731848	1043.99913479599	0
1688	14051.43221547662	1043.99913559974	0
1689	14052.43629831992	1043.980748158633	0
1690	14051.43227157518	1043.999135552943	0
1691	14052.43637384229	1043.980798728823	0
1692	14052.43637230351	1043.980796859301	0
1693	14053.43517281247	1044.083576153516	0
1694	14052.43650132781	1043.980835535541	0
1695	14053.43521588257	1044.083575963586	0
1696	14053.4352337462	1044.08358121123	0
1697	14183.19055599032	1058.23096402824	0
1698	14183.19053067358	1058.231017666988	0
1699	14184.1925449919	1058.293684325646	0
1700	14183.19061926636	1058.230965180434	0
1701	14184.19256586096	1058.293539074048	0
1702	14184.1925516091	1058.293540270409	0
1703	14202.14556651745	1056.135050731078	0
1704	14202.14544447061	1056.134997842267	0
1705	14203.14873500568	1056.164131667255	0
1706	14202.14559821606	1056.135049438057	0
1707	14203.14895716951	1056.164126249514	0
1708	14203.14871437894	1056.164132599946	0
1709	14299.42384382869	1053.241277067547	0
1710	14299.42383105296	1053.241275917899	0
1711	14300.42583651697	1053.281879530348	0
1712	14299.42381174688	1053.24127810229	0
1713	14300.42589946952	1053.281845325169	0
1714	14300.4259218863	1053.281842079042	0
1715	14341.3857206742	1049.158585244408	0
1716	14341.3857252035	1049.158523190119	0
1717	14342.38826493017	1049.131394253717	0
1718	14341.38580606813	1049.15858852763	0
1719	14342.38827363995	1049.131458288189	0
1720	14342.38825501647	1049.13145984835	0
1721	14462.52466757767	1059.223697240819	0
1722	14462.52436704592	1059.224147273226	0
1723	14463.52743020846	1059.192609452198	0
1724	14462.52466972622	1059.223696873707	0
1725	14463.52747806501	1059.19253426799	0
1726	14463.52743722766	1059.192546339611	0
1727	14484.35582727702	1055.908494531446	0
1728	14484.35585527748	1055.908496875359	0
1729	14485.34191133299	1055.726920611398	0
1730	14484.35587876285	1055.908489178443	0
1731	14485.34196573837	1055.726919044572	0
1732	14485.34199192994	1055.726912897453	0
1733	14499.20369952675	1053.47564433485	0
1734	14499.20381686382	1053.475620379594	0
1735	14500.17850653128	1053.241418492043	0
1736	14499.20367898452	1053.475646522214	0
1737	14500.17851334453	1053.241445332579	0
1738	14500.17851926713	1053.241444051404	0
1739	14518.09231411955	1051.067683827498	0
1740	14518.09230503684	1051.067683662643	0
1741	14519.08763184953	1050.955099192187	0
1742	14518.09229605316	1051.067684868401	0
1743	14519.08767657675	1050.955095069321	0
1744	14519.08763185053	1050.955099192158	0
1745	14530.08861769732	1050.199173631296	0
1746	14530.08864691148	1050.199034512184	0
1747	14531.08454004419	1050.312472871706	0
1748	14530.08867906494	1050.199173070026	0
1749	14531.0845105274	1050.312479891102	0
1750	14531.08450088403	1050.312478415654	0
1751	14725.77846355977	1066.023878231302	0
1752	14725.77847196722	1066.023883170434	0
1753	14726.7578122326	1066.229021851781	0
1754	14725.77845474925	1066.023877556755	0
1755	14726.75789963744	1066.22899530374	0
1756	14726.75789189055	1066.228994329692	0
1757	14758.62592500413	1062.687388248712	0
