idx	X	Y	component
0	1000	1024.476581652106	0
1	1001.572845476507	1025.722956525171	0
2	1001.572833506023	1025.723004417316	0
3	1009.459816506795	1032.097886955842	0
4	1009.459589838974	1032.097912596611	0
5	1011.09737494377	1033.295780645035	0
6	1011.09737283797	1033.295766271828	0
7	1017.721197473046	1035.747435850697	0
8	1017.72118489111	1035.747459978977	0
9	1018.61347461699	1036.209534849848	0
10	1017.721184191421	1035.747429675818	0
11	1018.613357756248	1036.209488176049	0
12	1018.61346298528	1036.209538308158	0
13	1025.246768503398	1038.596428428287	0
14	1025.246746295264	1038.596435386919	0
15	1026.201992038211	1038.917555717487	0
16	1025.247147298222	1038.596478016972	0
17	1026.202095790921	1038.917559521999	0
18	1026.201968628505	1038.917573513667	0
19	1035.060253088536	1040.930855072965	0
20	1035.060253089149	1040.930855073755	0
21	1036.0554713815	1041.092343494229	0
22	1035.060601943793	1040.930932222944	0
23	1036.055524781995	1041.092349125284	0
24	1036.055581233845	1041.092357454709	0
25	1043.947440316924	1042.823992150208	0
26	1043.947387032976	1042.823963299181	0
27	1044.939245658257	1043.025193306935	0
28	1043.94773148639	1042.823993029262	0
29	1044.939347333303	1043.025162004466	0
30	1044.939381107364	1043.025162336203	0
31	1061.935686003457	1045.683183576336	0
32	1061.935858065327	1045.683203588392	0
33	1062.938594699973	1045.823500980713	0
34	1061.935515541038	1045.683172811901	0
35	1062.938375902207	1045.823477356276	0
36	1062.938604339544	1045.823500418256	0
37	1084.998420900332	1048.978834404441	0
38	1084.998462882621	1048.978834898173	0
39	1086.006476853175	1049.100212513442	0
40	1084.998418104096	1048.978828502536	0
41	1086.006361000197	1049.100210948729	0
42	1086.006330279604	1049.100181111926	0
43	1099.164991384532	1050.052013275146	0
44	1099.165214755928	1050.052079253443	0
45	1100.177551924026	1050.111196977126	0
46	1099.165256941897	1050.05203480672	0
47	1100.177580626258	1050.111153720045	0
48	1100.177614537686	1050.111157646859	0
49	1102.204436929184	1050.152531147389	0
50	1102.204257198081	1050.152565052173	0
51	1103.216173211724	1050.140902825709	0
52	1102.204404136583	1050.152549429435	0
53	1103.216032114485	1050.14091599581	0
54	1103.21627774161	1050.14090720277	0
55	1112.360235039285	1049.914102080049	0
56	1112.360605599205	1049.914124981222	0
57	1113.348500804483	1049.692034874747	0
58	1112.361009487643	1049.916695741711	0
59	1113.348743570689	1049.694105042041	0
60	1113.348689757976	1049.692024793234	0
61	1123.320117246124	1047.807995966306	0
62	1123.320154548298	1047.807988797818	0
63	1124.310978396029	1047.595605449632	0
64	1123.320096470175	1047.808007954807	0
65	1124.310720264123	1047.595734896506	0
66	1124.31085302159	1047.595614818893	0
67	1137.222239301647	1044.983290365212	0
68	1137.222287990931	1044.983278508321	0
69	1138.193544305264	1044.702101424593	0
70	1137.221244038269	1044.98397458427	0
71	1138.192821986228	1044.702634671247	0
72	1138.193531296688	1044.702101202928	0
73	1152.886387756188	1040.774838251573	0
74	1152.885189750953	1040.775002532933	0
75	1153.864388539176	1040.512218395353	0
76	1152.886471634622	1040.774819380443	0
77	1153.864635930616	1040.512287463687	0
78	1153.864559302614	1040.512204635131	0
79	1154.828641931525	1040.194606022405	0
80	1153.86473820921	1040.512262869838	0
81	1154.828820922237	1040.194666982234	0
82	1154.828682997714	1040.194592494798	0
83	1163.3175454958	1036.877628320488	0
84	1163.317424744719	1036.877637302134	0
85	1164.270384222711	1036.535715688646	0
86	1163.317627219094	1036.877601591439	0
87	1164.270413990374	1036.535843350392	0
88	1164.27048429653	1036.535709992358	0
89	1179.58369508545	1031.290923024209	0
90	1179.583332571293	1031.290921761412	0
91	1180.514112206868	1030.893195144285	0
92	1179.583823584504	1031.29088344564	0
93	1180.515205625165	1030.893098394909	0
94	1180.515180538163	1030.893104797875	0
95	1182.413980039061	1030.194795229181	0
96	1182.413599348886	1030.194724049272	0
97	1183.339982646213	1029.783265666909	0
98	1182.414280861955	1030.194682194896	0
99	1183.33989077087	1029.783316484442	0
100	1183.339981017689	1029.783266143933	0
101	1184.274285421685	1029.398199414182	0
102	1184.273959267439	1029.3982287463	0
103	1185.217881773966	1029.033895203004	0
104	1184.274553730009	1029.398143603866	0
105	1185.218071126893	1029.033951299735	0
106	1185.218143000233	1029.033881916114	0
107	1187.11811753392	1028.340223009171	0
108	1187.117822805761	1028.340221142814	0
109	1188.089944872232	1028.065040265496	0
110	1187.118707867108	1028.340310689614	0
111	1188.090256345874	1028.065032956235	0
112	1188.090280944042	1028.065031855093	0
113	1196.926472527161	1025.838308940158	0
114	1196.926563002194	1025.838212101506	0
115	1197.873236248916	1025.483001391956	0
116	1196.926471494263	1025.838288242928	0
117	1197.873741428551	1025.483009304004	0
118	1197.873748929773	1025.483011119164	0
119	1205.742611163769	1023.567936113074	0
120	1205.742641403009	1023.567931090655	0
121	1206.705640668207	1023.262943080782	0
122	1205.742681283999	1023.567895959992	0
123	1206.705832310757	1023.26290064924	0
124	1206.705696097816	1023.262933168033	0
125	1225.342023848027	1018.5318202762	0
126	1225.341966406284	1018.531723178141	0
127	1226.313639058149	1018.249796036385	0
128	1225.342054347536	1018.53181255198	0
129	1226.313792467058	1018.249788250039	0
130	1226.313930880766	1018.249757671006	0
131	1243.168388571718	1014.703913920619	0
132	1243.168439343915	1014.703869175644	0
133	1245.121556833988	1014.182680291111	0
134	1243.168439289729	1014.703915232151	0
135	1245.122095963465	1014.182733247256	0
136	1245.12156927924	1014.182675218128	0
137	1246.106791488241	1013.955646071737	0
138	1245.122097138172	1014.182721739434	0
139	1246.107014881395	1013.955676163259	0
140	1246.106890724091	1013.955681328627	0
141	1248.099399297558	1013.574699928565	0
142	1248.094639203463	1013.573338613854	0
143	1249.090731911481	1013.369715187744	0
144	1248.099339889554	1013.574705373621	0
145	1249.091024348116	1013.369812410883	0
146	1249.091543432269	1013.369715417244	0
147	1262.232599502922	1012.229080325115	0
148	1262.232599503914	1012.229080324986	0
149	1263.246487716012	1012.179706283545	0
150	1262.2328220869	1012.228992625877	0
151	1263.24654758504	1012.17966303729	0
152	1263.246336009698	1012.179706555573	0
153	1264.257661144728	1012.097768585033	0
154	1264.256856285515	1012.097524533175	0
155	1265.267054888555	1012.079805670806	0
156	1264.257631522411	1012.097778787898	0
157	1265.267269935712	1012.079841407145	0
158	1265.267233891151	1012.079849912055	0
159	1276.413782999832	1012.444324602351	0
160	1276.414086878147	1012.44431402869	0
161	1277.432213806316	1012.487282264687	0
162	1276.414713827877	1012.44445511348	0
163	1277.433514650776	1012.487557100508	0
164	1277.43365656883	1012.487569374277	0
165	1303.585034262167	1015.927656999718	0
166	1303.584194920819	1015.927576285048	0
167	1304.575475818817	1016.142720861397	0
168	1303.585093059017	1015.927659402251	0
169	1304.575984934765	1016.142746582044	0
170	1304.575982304695	1016.142750125074	0
171	1326.659657755996	1019.373339714125	0
172	1326.659469055169	1019.373319454923	0
173	1327.66234305989	1019.547147413032	0
174	1326.659706223769	1019.373307618503	0
175	1327.662444923334	1019.547130903903	0
176	1327.662499173113	1019.547145727852	0
177	1333.696617776674	1020.570196679671	0
178	1333.696376185789	1020.570155109538	0
179	1334.709927203843	1020.60756582101	0
180	1333.697165984602	1020.570264537076	0
181	1334.710207555876	1020.607510399507	0
182	1334.710494173338	1020.60758007627	0
183	1336.722006882445	1021.291697949173	0
184	1336.667380784151	1021.295108918291	0
185	1336.726936115156	1021.29201521713	0
186	1336.72217025501	1021.291635745719	0
187	1337.826636758542	1020.997848325277	0
188	1337.827154511813	1020.997730782112	0
189	1338.849856819507	1021.041560371629	0
190	1337.82883314851	1020.997703791167	0
191	1338.852093289267	1021.041499705954	0
192	1338.852084299934	1021.041485841928	0
193	1351.020289090657	1020.506826507072	0
194	1351.020345502194	1020.506824132559	0
195	1352.033747723995	1020.443539136999	0
196	1351.020488615758	1020.506814852139	0
197	1352.03414349898	1020.443500014185	0
198	1352.033726193793	1020.443529653389	0
199	1369.035191561589	1017.662299862971	0
200	1369.035269985091	1017.662278280046	0
201	1370.03186778757	1017.495204452735	0
202	1369.035652722262	1017.662256526846	0
203	1370.032510145504	1017.49517668263	0
204	1370.032481263637	1017.495182540657	0
205	1380.931392332272	1015.188870107259	0
206	1380.931497713297	1015.188861291344	0
207	1381.918023028611	1014.969142233637	0
208	1380.931959327117	1015.188835822371	0
209	1381.918724109482	1014.96915178342	0
210	1381.917995805123	1014.969148297399	0
211	1382.873414488612	1014.635386613988	0
212	1382.873293618844	1014.635344215539	0
213	1383.856804116743	1014.410964630711	0
214	1382.873985980536	1014.635346697541	0
215	1383.857230866388	1014.410952485438	0
216	1383.857059488987	1014.410967883395	0
217	1384.832167443002	1014.147960385574	0
218	1383.857551405714	1014.411053862233	0
219	1384.832135432689	1014.147961354481	0
220	1384.832087814704	1014.147970873534	0
221	1403.726753686335	1010.61462525354	0
222	1403.726973031339	1010.614594213039	0
223	1404.687184542097	1010.296611141579	0
224	1403.726879534178	1010.6146101939	0
225	1404.687176230548	1010.296648247103	0
226	1404.687184541153	1010.296611141909	0
227	1408.686203000531	1009.655067383777	0
228	1408.685920976382	1009.655090433777	0
229	1409.65841603118	1009.381702959634	0
230	1408.686384475039	1009.655040323149	0
231	1409.658982210475	1009.381587682958	0
232	1409.658419916508	1009.381704556589	0
233	1434.688643698434	1005.963568761471	0
234	1434.688683431379	1005.963548198786	0
235	1435.686744269962	1005.846121432291	0
236	1434.689408043704	1005.963463739665	0
237	1435.687018183203	1005.846062873827	0
238	1435.68752609251	1005.846039462692	0
239	1445.759800526602	1004.838836938215	0
240	1445.75985172831	1004.838825741889	0
241	1446.746839900132	1004.643973612134	0
242	1445.759999218206	1004.838853656414	0
243	1446.747573615404	1004.644143372377	0
244	1446.747573616401	1004.644143372296	0
245	1472.039483650813	1003.765208016123	0
246	1472.039292817271	1003.76519894316	0
247	1473.045918784347	1003.768586787866	0
248	1472.039794419376	1003.765159229944	0
249	1473.045795312618	1003.768562440764	0
250	1473.045612906328	1003.768565781557	0
251	1474.057411238515	1003.744888197533	0
252	1474.056821590341	1003.744786327861	0
253	1475.066124278148	1003.722853754555	0
254	1474.057606911927	1003.744888317418	0
255	1475.067236708022	1003.723072834343	0
256	1475.067236707046	1003.723072834558	0
257	1481.118918501312	1004.209153112293	0
258	1481.117866619939	1004.20892927333	0
259	1482.12293716113	1004.308841440549	0
260	1481.119016075811	1004.209149878254	0
261	1482.123660892035	1004.30892397117	0
262	1482.123686642573	1004.308925359729	0
263	1515.188157847829	1009.851560182815	0
264	1515.18817384666	1009.851568218807	0
265	1516.180694910871	1010.059176730023	0
266	1515.188909843113	1009.851433672809	0
267	1516.181135165103	1010.059200515744	0
268	1516.180835694672	1010.059160352456	0
269	1522.126725402961	1011.404061997373	0
270	1522.125128417052	1011.404092889799	0
271	1523.132244689026	1011.52934717174	0
272	1522.126748699808	1011.40410631566	0
273	1523.132410279204	1011.529338485641	0
274	1523.132372463662	1011.529358944955	0
275	1531.148362369479	1012.87477787115	0
276	1531.148534720352	1012.874791636883	0
277	1532.159710428502	1013.001379784918	0
278	1531.148574752401	1012.874802061203	0
279	1532.159859897865	1013.001391627511	0
280	1532.160128850373	1013.001357618669	0
281	1534.185824814692	1013.134156395074	0
282	1534.185842779555	1013.134158157802	0
283	1535.20202556317	1013.144928463783	0
284	1534.186095898226	1013.134141395066	0
285	1535.202348315745	1013.144946673684	0
286	1535.202110139426	1013.144922351794	0
287	1539.249972313392	1013.193282901449	0
288	1539.227795723499	1013.199131789612	0
289	1541.25884052426	1012.585165111326	0
290	1539.249864261682	1013.193381081663	0
291	1541.265232532448	1012.585010763488	0
292	1541.263960553164	1012.585341620176	0
293	1548.576709292596	1010.767644480462	0
294	1548.564815644309	1010.765151397745	0
295	1548.612219414159	1010.769189493454	0
296	1548.578160969128	1010.768012731597	0
297	1549.752434806667	1011.294210059649	0
298	1549.744483348954	1011.2912166888	0
299	1550.770002766238	1011.445451232274	0
300	1549.751730701466	1011.293907617052	0
301	1550.773703162745	1011.446094056056	0
302	1550.769950768411	1011.445451001292	0
303	1551.791376191594	1011.483091799391	0
304	1550.761316409507	1011.444372190608	0
305	1551.79155741269	1011.482993217957	0
306	1551.79186312226	1011.483037735965	0
307	1564.888190137402	1009.133955392395	0
308	1564.888076171646	1009.133960864989	0
309	1565.864410773158	1008.867221096618	0
310	1564.888158087456	1009.133936102573	0
311	1565.864215680868	1008.867247336152	0
312	1565.864186881011	1008.867237867019	0
313	1580.922872154279	1006.502389400796	0
314	1580.921381747688	1006.50260050631	0
315	1581.899936763834	1006.226003687124	0
316	1580.923200161996	1006.502309010892	0
317	1581.900211420272	1006.225955061489	0
318	1581.900156512022	1006.225972320497	0
319	1582.886770027089	1005.979254007857	0
320	1582.886953988414	1005.979144159259	0
321	1583.86624857494	1005.714956576534	0
322	1582.886827046251	1005.979209140557	0
323	1583.866281068921	1005.715038718004	0
324	1583.866144071163	1005.715065049699	0
325	1585.820464903351	1005.173537117733	0
326	1585.820536648346	1005.173534737089	0
327	1586.778960296181	1004.851507336414	0
328	1585.820561913686	1005.173518208047	0
329	1586.778847195671	1004.851490736566	0
330	1586.779011747734	1004.851488856731	0
331	1587.729484842281	1004.499032535377	0
332	1587.728397213922	1004.498517946558	0
333	1588.684827825114	1004.176377789165	0
334	1587.729361942517	1004.499072142634	0
335	1588.685624596627	1004.176439016977	0
336	1588.685777978645	1004.176433998609	0
337	1593.613793013315	1002.94883804235	0
338	1593.614014241273	1002.948762151072	0
339	1594.606327687466	1002.778869622101	0
340	1593.614293267808	1002.94887375756	0
341	1594.606586132679	1002.779037852144	0
342	1594.606796720005	1002.779012753448	0
343	1615.819655244509	1000.764126944628	0
344	1615.819692935576	1000.763389048009	0
345	1616.822361232073	1000.647101902957	0
346	1615.819854532058	1000.764123006294	0
347	1616.822867699644	1000.647365466372	0
348	1616.822631783362	1000.64735714879	0
349	1626.945189396828	1000.149511244821	0
350	1626.941747468084	1000.148909753321	0
351	1627.951988552023	1000	0
352	1626.945199550888	1000.149495745179	0
353	1627.952300476821	1000.000174786011	0
354	1627.9524603703	1000.000189035934	0
355	1652.264285306964	1002.091642791157	0
356	1652.264210327778	1002.091645728975	0
357	1653.265073968898	1002.272812759559	0
358	1652.265306597802	1002.091445907583	0
359	1653.264616607247	1002.272502839033	0
360	1653.265273110306	1002.272802188294	0
361	1711.324165603107	1012.511654958626	0
362	1711.322415579971	1012.511480794584	0
363	1712.285229462763	1012.835777837774	0
364	1711.324211555964	1012.511666363424	0
365	1712.285318727392	1012.835747939414	0
366	1712.285242210054	1012.835754125741	0
367	1747.292980127442	1018.887312080166	0
368	1747.292951184732	1018.887303846522	0
369	1748.29211243706	1019.041772073422	0
370	1747.29324381461	1018.887323467689	0
371	1748.292353706209	1019.041811296119	0
372	1748.292156909562	1019.041783909446	0
373	1762.113138604204	1022.333508785413	0
374	1762.112256014072	1022.333576431154	0
375	1763.10379429665	1022.564556706412	0
376	1762.113350227012	1022.333582931108	0
377	1763.104434203008	1022.564546596946	0
378	1763.104442824203	1022.564528155689	0
379	1770.159708804609	1023.750110555848	0
380	1770.159657386295	1023.750113003328	0
381	1771.165206611268	1023.86379605422	0
382	1770.159743623658	1023.750117171893	0
383	1771.165013403618	1023.863692336311	0
384	1771.165264257148	1023.863744580553	0
385	1799.618510882284	1024.93742989549	0
386	1799.619538261383	1024.937430542596	0
387	1800.636494732735	1025.026028317836	0
388	1799.621004137837	1024.937404589498	0
389	1800.639831959929	1025.025830492399	0
390	1800.636850514517	1025.02598452386	0
391	1809.71231355513	1023.617295345694	0
392	1809.712313555768	1023.617295346464	0
393	1810.829052820351	1023.840482702872	0
394	1810.829170935808	1023.840474463023	0
395	1810.877414682573	1023.852140079495	0
396	1809.715623531049	1023.617244175543	0
397	1810.876398904445	1023.851671948252	0
398	1810.844550009074	1023.843933449749	0
399	1830.026272267824	1019.791209624359	0
400	1830.027824585696	1019.790898092698	0
401	1831.015611535405	1019.555603841097	0
402	1830.02725647036	1019.791048486301	0
403	1831.016013201413	1019.555557549318	0
404	1831.015904209214	1019.555485371514	0
405	1833.013816186958	1019.118942749243	0
406	1833.013748122086	1019.118949633511	0
407	1834.026665839443	1019.002840629221	0
408	1833.013714002314	1019.118951374217	0
409	1834.027174610578	1019.002765609793	0
410	1834.026649794231	1019.002846173042	0
411	1847.65111838948	1014.929389437405	0
412	1847.650759362168	1014.92944637599	0
413	1848.300559955306	1014.827204123218	0
414	1847.886455262166	1014.892274823132	0
415	1857.004010726413	1013.65520507872	0
416	1857.002752843392	1013.655342298126	0
417	1857.978023557529	1013.319856058036	0
418	1857.004873696658	1013.654962414266	0
419	1857.978187804598	1013.320036037375	0
420	1857.978082349807	1013.320021480944	0
421	1868.979177794447	1010.871568548052	0
422	1868.979469144685	1010.871583585735	0
423	1869.932672163829	1010.48274570442	0
424	1868.982035377647	1010.871156738266	0
425	1869.93376057306	1010.482773273581	0
426	1869.93354142033	1010.482825562672	0
427	1872.897299240358	1009.676695648159	0
428	1872.897119179813	1009.676724412545	0
429	1873.914339972112	1009.529237138425	0
430	1872.896321271269	1009.676894233902	0
431	1873.914186504303	1009.529369240055	0
432	1873.91426260294	1009.529307707574	0
433	1878.933612285182	1008.353810576599	0
434	1878.929936470985	1008.353786933476	0
435	1879.968196147947	1008.333380919931	0
436	1878.93416114089	1008.353668159874	0
437	1879.968225532483	1008.333595709144	0
438	1879.968128112137	1008.333575603437	0
439	1892.674633875204	1002.408449139767	0
440	1892.671197594418	1002.408123795927	0
441	1892.720461613994	1002.40390980367	0
442	1892.697011017021	1002.40918530518	0
443	1903.524788852525	1002.897231758909	0
444	1903.53142232735	1002.895983063305	0
445	1904.575455388761	1002.885834413986	0
446	1903.524801294674	1002.897234926679	0
447	1904.572171395175	1002.886071626349	0
448	1904.573199273816	1002.886222392372	0
449	1912.697620336373	1002.751968202959	0
450	1912.697240747287	1002.751978555741	0
451	1913.711341941364	1002.81182317789	0
452	1912.698462997207	1002.751928791192	0
453	1913.711754873247	1002.811780951358	0
454	1913.711708761765	1002.811776128623	0
455	1961.455805262999	1005.369821934886	0
456	1961.455969523387	1005.369767755553	0
457	1962.466394773018	1005.43905269549	0
458	1961.455877612131	1005.369813024937	0
459	1962.466299574667	1005.43914199628	0
460	1962.466620912095	1005.43908357942	0
461	1972.623388940911	1005.342531796567	0
462	1972.623221881144	1005.342511212045	0
463	1973.634278139605	1005.220937295302	0
464	1972.623850556707	1005.342576596236	0
465	1973.633484346088	1005.221249748778	0
466	1973.633743385192	1005.221253896496	0
467	1978.692680609556	1005.040309189636	0
468	1978.6913008137	1005.03971418661	0
469	1979.666960007575	1004.864703143706	0
470	1978.692803965012	1005.040301939411	0
471	1979.668186789204	1004.86560971908	0
472	1979.66872100496	1004.865651968964	0
473	2005.128484175619	1005.340067737591	0
474	2005.127347401117	1005.339887132327	0
475	2006.136413777237	1005.500459725942	0
476	2005.129059894428	1005.340088189247	0
477	2006.136831058092	1005.5005105987	0
478	2006.137183746871	1005.500538121372	0
479	2046.365219017496	1011.611957570071	0
480	2046.365285055848	1011.611967175461	0
481	2047.34546423743	1011.883333352191	0
482	2046.365608118934	1011.611933345337	0
483	2047.345804577004	1011.883354539105	0
484	2047.345798039822	1011.883354740675	0
485	2058.314341750194	1014.010074318887	0
486	2058.31315590989	1014.010119079291	0
487	2059.326399196417	1014.104535320375	0
488	2058.314570777512	1014.010104543529	0
489	2059.327084103931	1014.104549001931	0
490	2059.327101183358	1014.104550686153	0
491	2067.459441669409	1014.416646749369	0
492	2067.45953588298	1014.416772058375	0
493	2069.506537935159	1014.48201143377	0
494	2067.459260775309	1014.416617082998	0
495	2069.504461659298	1014.48188396904	0
496	2069.503685141639	1014.481839454671	0
497	2073.981095279481	1015.017609640317	0
498	2073.877138145212	1015.012679791221	0
499	2074.083513925104	1015.022479369517	0
500	2073.867022351462	1015.012195208166	0
501	2074.110095153172	1015.023548895564	0
502	2073.981095280479	1015.017609640365	0
503	2095.489487045859	1019.290728319723	0
504	2095.488385146261	1019.290478618252	0
505	2096.46506791196	1019.598065364404	0
506	2095.488932507498	1019.290429165278	0
507	2096.463030425235	1019.597625858519	0
508	2096.46460971742	1019.597982433476	0
509	2116.581697190855	1023.475115370043	0
510	2116.582128744933	1023.475088864518	0
511	2117.243040885253	1024.412704817566	0
512	2116.591566537109	1023.479373724452	0
513	2117.244748877974	1024.412519257947	0
514	2117.242342147483	1024.412367173616	0
515	2121.154018518568	1025.911083526072	0
516	2121.146618823737	1025.910980063218	0
517	2119.178967522041	1024.860005066909	0
518	2119.174554105681	1024.857625758566	0
519	2120.882926926332	1024.72502475258	0
520	2121.155467718768	1025.910410033362	0
521	2120.88483750681	1024.727429678671	0
522	2120.886729267393	1024.727622854745	0
523	2141.005070738573	1027.751322710701	0
524	2141.004320506416	1027.751221251657	0
525	2143.067347315362	1027.600731372355	0
526	2141.006633616033	1027.751474547049	0
527	2143.071698996269	1027.601150358017	0
528	2143.071601628167	1027.601148288903	0
529	2147.203762342905	1027.751290667219	0
530	2147.202889725422	1027.751141603686	0
531	2148.242710523019	1027.708029607543	0
532	2147.204489233679	1027.751514444054	0
533	2148.244088458939	1027.708271655196	0
534	2148.242810412363	1027.707976669066	0
535	2151.292856286357	1027.271296169781	0
536	2151.292742522744	1027.271281974023	0
537	2153.315010932733	1027.036397260449	0
538	2151.292556731153	1027.271571247131	0
539	2153.315330218461	1027.036462571651	0
540	2153.315478653156	1027.036403077185	0
541	2184.958864870241	1023.766659925677	0
542	2184.959524494237	1023.766659201132	0
543	2185.958781059941	1023.612911240808	0
544	2184.959579120311	1023.766629635889	0
545	2185.958719907774	1023.612961570073	0
546	2185.958674786434	1023.612901582683	0
547	2195.039458617884	1021.82892151205	0
548	2195.038229261385	1021.829048049707	0
549	2196.023290747436	1021.573029107997	0
550	2195.03945861888	1021.828921511975	0
551	2196.023428144813	1021.573155036292	0
552	2196.009229168846	1021.569166363694	0
553	2198.029384822579	1021.116598088626	0
554	2196.023384097987	1021.573094363566	0
555	2198.030807712244	1021.116747663534	0
556	2198.030792638898	1021.116728714838	0
557	2208.324730995831	1021.407139132933	0
558	2208.324730994841	1021.407139132794	0
559	2209.35237193248	1021.454423569793	0
560	2208.324280714578	1021.40715893658	0
561	2209.35188466666	1021.454428664556	0
562	2209.352978123967	1021.454599270415	0
563	2213.449917940163	1021.528016788973	0
564	2213.449601350437	1021.527978193938	0
565	2214.450135491653	1021.738966504054	0
566	2213.451323884454	1021.528015971576	0
567	2214.451370036141	1021.739015980302	0
568	2214.451085809622	1021.739002125786	0
569	2234.860336107056	1024.447081794988	0
570	2234.860959402306	1024.447009002788	0
571	2235.869596358825	1024.66504697073	0
572	2234.860908107125	1024.44710308325	0
573	2235.869072132455	1024.665044456644	0
574	2235.869657679556	1024.665025045562	0
575	2271.999061066728	1032.056295040959	0
576	2271.99359916183	1032.055174028013	0
577	2272.969776886927	1032.362187320105	0
578	2271.999063679855	1032.05629508344	0
579	2272.971315259793	1032.362295391792	0
580	2272.971389009724	1032.362288563216	0
581	2273.942813415796	1032.757320641683	0
582	2272.979928895023	1032.361801110736	0
583	2273.942725220084	1032.757287835095	0
584	2273.942830470323	1032.757323152893	0
585	2274.935272990615	1033.064192728433	0
586	2274.935927016585	1033.064224270699	0
587	2275.889794314721	1033.468335561893	0
588	2274.935552328231	1033.064258035702	0
589	2275.890458134943	1033.468443109711	0
590	2274.937689503968	1033.064418685984	0
591	2275.891736115615	1033.468746140168	0
592	2275.88992671807	1033.468378360367	0
593	2292.086263953685	1036.547609112062	0
594	2292.085077055827	1036.547613796738	0
595	2293.104340664165	1036.787171311622	0
596	2292.089987650002	1036.548177280468	0
597	2293.109185536571	1036.787345878805	0
598	2293.105756660077	1036.787003264409	0
599	2294.138234724584	1036.88664702224	0
600	2293.109183075545	1036.787345670139	0
601	2294.147012478194	1036.887817589637	0
602	2294.135437925309	1036.886465849909	0
603	2304.439148645498	1037.729523717578	0
604	2304.439039313698	1037.729442565797	0
605	2305.449341900503	1037.982615657674	0
606	2304.438997111788	1037.729470855274	0
607	2305.448171375572	1037.982657209038	0
608	2305.448011626067	1037.982159673211	0
609	2308.537321354564	1038.103810996782	0
610	2308.538218984794	1038.103777821038	0
611	2309.550956317147	1038.302163796486	0
612	2308.537117747673	1038.103489718738	0
613	2309.55111895356	1038.30217427845	0
614	2309.550962663281	1038.302146418377	0
615	2319.886063939728	1040.447068066535	0
616	2319.885935100876	1040.446918355658	0
617	2320.897919181891	1040.752000533837	0
618	2319.885726557796	1040.447076623697	0
619	2320.898314238618	1040.751957221556	0
620	2320.898433455125	1040.752151312689	0
621	2323.926989240283	1041.82717017518	0
622	2323.914818448467	1041.823825784583	0
623	2324.876807592655	1042.302439342241	0
624	2323.927735968813	1041.827894664622	0
625	2324.888106814265	1042.30265798959	0
626	2324.885831883088	1042.302301798389	0
627	2326.229871410608	1042.855422878815	0
628	2326.228769433581	1042.854918671597	0
629	2326.385971008646	1042.911229314632	0
630	2326.386616791631	1042.91133261976	0
631	2336.231456913454	1045.604085093988	0
632	2336.214273498362	1045.602555104419	0
633	2337.171480614013	1046.101245076503	0
634	2336.233111023163	1045.604844504698	0
635	2337.176882034897	1046.1019493464	0
636	2337.17768803405	1046.102272372708	0
637	2345.718163529682	1050.599123904911	0
638	2345.701679523058	1050.583670839387	0
639	2344.884759480361	1051.898120409742	0
640	2344.882168327596	1051.896546238974	0
641	2345.005075940953	1051.891553079083	0
642	2345.006702665447	1051.896972987428	0
643	2345.763939104535	1050.644567254752	0
644	2345.71877619212	1050.599089016612	0
645	2349.256524806309	1051.164398822574	0
646	2349.256543890532	1051.164398652851	0
647	2349.362744086509	1051.181076215072	0
648	2349.361645328302	1051.181570047313	0
649	2352.227930976873	1052.085832514238	0
650	2352.207863774582	1052.09111534761	0
651	2353.290980014932	1052.517354522033	0
652	2352.233213772703	1052.086381673453	0
653	2353.324881715451	1052.517864152595	0
654	2353.32717417641	1052.518640418934	0
655	2364.445538429263	1055.337675790021	0
656	2364.5527557796	1055.345956031582	0
657	2368.125734744381	1056.132439063866	0
658	2367.876635298085	1056.08978828213	0
659	2364.431266593202	1055.340999910332	0
660	2364.439891003004	1055.337104564107	0
661	2372.171970630025	1057.23145014028	0
662	2372.176854473293	1057.235026529665	0
663	2368.41098694461	1056.183342416958	0
664	2368.140224324442	1056.134533255999	0
665	2371.166080442107	1056.360983105184	0
666	2371.165255309346	1056.360857511724	0
667	2371.483495074128	1056.422246081093	0
668	2371.274696680284	1056.379718545927	0
669	2372.405251805902	1057.088512022563	0
670	2371.472422832297	1056.418175829857	0
671	2372.453060725972	1057.092793161935	0
672	2372.295024412747	1057.167443322319	0
673	2375.524687205338	1056.32081945358	0
674	2375.523187724653	1056.314258784459	0
675	2376.809941410976	1056.209486473566	0
676	2375.52269846879	1056.320843601341	0
677	2376.805643998335	1056.211640589346	0
678	2376.813628512155	1056.210706781928	0
679	2386.985024719662	1056.171029821224	0
680	2386.988083146223	1056.171073159856	0
681	2388.278169867452	1056.217378423539	0
682	2386.987497495004	1056.17110807911	0
683	2388.279304195377	1056.217705760929	0
684	2388.277670259762	1056.217229173061	0
685	2396.013273666111	1056.121250555865	0
686	2395.925920774225	1056.117525617001	0
687	2396.085170426128	1056.123056858812	0
688	2396.014321166939	1056.121265748811	0
689	2400.279027637288	1056.450865041774	0
690	2400.280279910262	1056.450917478227	0
691	2402.064404724654	1056.767557646498	0
692	2400.292236839623	1056.449505434843	0
693	2402.786619838651	1056.803158701957	0
694	2402.059354022241	1056.763655581209	0
695	2401.975548285042	1057.496501026517	0
696	2401.968403785681	1057.492144341632	0
697	2401.986691156625	1057.501369770512	0
698	2401.977663226011	1057.496207625779	0
699	2406.718174263892	1059.705182789963	0
700	2406.720226808091	1059.708895653768	0
701	2406.864980751466	1059.258425121052	0
702	2406.764915686676	1059.552365827093	0
703	2403.062557567358	1056.815503018907	0
704	2403.065365572945	1056.809815427893	0
705	2402.403375486858	1057.282656166664	0
706	2402.401675989287	1057.282993355521	0
707	2408.977525254697	1054.007010903433	0
708	2408.968997636306	1054.010186219927	0
709	2410.108748923226	1053.734679712431	0
710	2408.977762635493	1054.006795402124	0
711	2410.117962149864	1053.729729525002	0
712	2410.109762177178	1053.734169362705	0
713	2432.661324755948	1052.911140273994	0
714	2432.609797581466	1052.942208467064	0
715	2432.94667429061	1052.780094202507	0
716	2432.661931900394	1052.911089239767	0
717	2439.566799383006	1050.343065784515	0
718	2439.573736112371	1050.352546801943	0
719	2439.567807048795	1050.276434101222	0
720	2439.568269525949	1050.343165755515	0
721	2444.775531975923	1046.370801772539	0
722	2444.765311330042	1046.371592180109	0
723	2445.812356115703	1046.095348351124	0
724	2444.776233850616	1046.370837103802	0
725	2445.81409261563	1046.096074946931	0
726	2445.813258821094	1046.095464035797	0
727	2446.817973556284	1045.712111172246	0
728	2445.813560574051	1046.095425515059	0
729	2446.817715288342	1045.712058889812	0
730	2446.818286430634	1045.71194062389	0
731	2449.833542158554	1044.729696605216	0
732	2449.832547189932	1044.730030750127	0
733	2450.717371338696	1044.173625159784	0
734	2449.834532583344	1044.7298538639	0
735	2450.737738471244	1044.169851074275	0
736	2450.73773847026	1044.169851074455	0
737	2455.83860863571	1042.745454072496	0
738	2455.838340348605	1042.745487890805	0
739	2456.768946321526	1042.240311424373	0
740	2455.844634974468	1042.744642365156	0
741	2456.776825192847	1042.238183758802	0
742	2456.770199405497	1042.240012933574	0
743	2463.947810276298	1040.703311062199	0
744	2463.944316241574	1040.703393853801	0
745	2464.827809749329	1040.141374189979	0
746	2463.948325615734	1040.703356792564	0
747	2464.83084479357	1040.140751026568	0
748	2464.830717252446	1040.14091737138	0
749	2471.99174084976	1038.683040827215	0
750	2471.989379313836	1038.683310373827	0
751	2472.879336778501	1038.211594137127	0
752	2471.991570423632	1038.683094111722	0
753	2472.886995169992	1038.213883983293	0
754	2472.879686741428	1038.211710735723	0
755	2474.71601945538	1037.260607165216	0
756	2474.70999228556	1037.260180899426	0
757	2475.703327085043	1036.947363924825	0
758	2474.71606662781	1037.260497456447	0
759	2475.705611842108	1036.947372838594	0
760	2475.703897395085	1036.947320939214	0
761	2486.571403087731	1033.699679115653	0
762	2486.5671091397	1033.69528154095	0
763	2487.56574281936	1033.440160407405	0
764	2486.57154639273	1033.699622437528	0
765	2487.564784709388	1033.440679760354	0
766	2487.565252685575	1033.44056997917	0
767	2493.57581212405	1031.835317333398	0
768	2493.576369745093	1031.835232552303	0
769	2494.536299166213	1031.468523448988	0
770	2493.575718125651	1031.835343335222	0
771	2494.536230269546	1031.468724478857	0
772	2494.53598565284	1031.468742783177	0
773	2524.110487266593	1026.564400644401	0
774	2524.108463111767	1026.558097963183	0
775	2525.128685425346	1026.510712349821	0
776	2524.111199774657	1026.564310985095	0
777	2525.133376258857	1026.513752888855	0
778	2525.128750479842	1026.510714235881	0
779	2530.267959281633	1025.83668051588	0
780	2530.267015988758	1025.822383230509	0
781	2531.266051470216	1025.757380133675	0
782	2530.267927404771	1025.83671371942	0
783	2531.266049035075	1025.758284026395	0
784	2531.265268735031	1025.757525079585	0
785	2540.755767952108	1025.363438710961	0
786	2540.750391394262	1025.363901873568	0
787	2541.648470116669	1025.834538536311	0
788	2540.756918895244	1025.363311631518	0
789	2541.648729454801	1025.83437301749	0
790	2541.649852603463	1025.834639731918	0
791	2549.128184532761	1025.929005045018	0
792	2549.12726833955	1025.92883763959	0
793	2549.4801229215	1025.905272325424	0
794	2549.478393991948	1025.905936427221	0
795	2558.398467675726	1025.914826693677	0
796	2558.39729851649	1025.914915635806	0
797	2558.526624054305	1025.904633541479	0
798	2558.52261852646	1025.905062093551	0
799	2559.946742937723	1025.510379283221	0
800	2559.939393993374	1025.510073989739	0
801	2560.080615452007	1025.47954015182	0
802	2559.947940658741	1025.510445824419	0
803	2560.951196961993	1026.024320702107	0
804	2560.94748787995	1026.023762853837	0
805	2561.98407422635	1026.201800937155	0
806	2560.951113024255	1026.024333748338	0
807	2561.984551470285	1026.201845587071	0
808	2561.983994111849	1026.201773239843	0
809	2585.617180549481	1027.510699082849	0
810	2585.616863975942	1027.510667703958	0
811	2586.589959156554	1027.856711580152	0
812	2585.619789360308	1027.510456277963	0
813	2586.592513659912	1027.856625239177	0
814	2586.590345228523	1027.856813016341	0
815	2602.696056123033	1030.89428091522	0
816	2602.695685933268	1030.894282400636	0
817	2603.698393871246	1031.139713128719	0
818	2602.706445379256	1030.894253655632	0
819	2603.701522375655	1031.139618042656	0
820	2603.700976451576	1031.139527971205	0
821	2608.696079635255	1032.328646706048	0
822	2608.69604799733	1032.328523238494	0
823	2609.611331200317	1032.823850987444	0
824	2608.703580439485	1032.330794092496	0
825	2609.611715960094	1032.823744697789	0
826	2609.61235134305	1032.823787711569	0
827	2620.924979910223	1035.141781958142	0
828	2620.922460027788	1035.141816409206	0
829	2621.104712082379	1035.166874847195	0
830	2621.104600899825	1035.167256962581	0
831	2622.841363932323	1035.219577508284	0
832	2621.439658766038	1035.268514443842	0
833	2622.940713820871	1035.252758992972	0
834	2622.838988177085	1035.219537087697	0
835	2623.812033942828	1034.761570279572	0
836	2622.843052462727	1035.220329907491	0
837	2623.827956969038	1034.758828057143	0
838	2623.810530619363	1034.761822920721	0
839	2631.05914859837	1035.2371830298	0
840	2631.058989125817	1035.237233098829	0
841	2632.068370641771	1035.09717471721	0
842	2631.064220257012	1035.237790091388	0
843	2632.068533921724	1035.097033640005	0
844	2632.06858890952	1035.097161638813	0
845	2638.208962523513	1034.886803621928	0
846	2638.209879451402	1034.886921410568	0
847	2639.217397448982	1034.762783890238	0
848	2638.209176887003	1034.886799151443	0
849	2639.217258796156	1034.762752224723	0
850	2639.217606233391	1034.762731770842	0
851	2648.384032118686	1034.285647313299	0
852	2648.384032119679	1034.285647313417	0
853	2649.395115997434	1034.314186062787	0
854	2648.385918895384	1034.28554578232	0
855	2649.39604764599	1034.314167644059	0
856	2649.395978204737	1034.314128676159	0
857	2653.468982809933	1034.420101289177	0
858	2653.469399465243	1034.420109837851	0
859	2654.471092336059	1034.283455708067	0
860	2653.469693122368	1034.419966774494	0
861	2654.471426681719	1034.283405507286	0
862	2654.471411084292	1034.283463232101	0
863	2663.596902115167	1033.547331605332	0
864	2663.596898816317	1033.5473259458	0
865	2664.599204013437	1033.355719997809	0
866	2663.596948412477	1033.547322350179	0
867	2664.599584116884	1033.355711571561	0
868	2664.599229243416	1033.355731559827	0
869	2675.684986808504	1031.767773326902	0
870	2675.685026316944	1031.767754760684	0
871	2676.700352859448	1031.780198802403	0
872	2675.685584416869	1031.767748529954	0
873	2676.700191523285	1031.780175164814	0
874	2676.7003655148	1031.780170314885	0
875	2677.71805227652	1031.733164458455	0
876	2676.704033323592	1031.779640475436	0
877	2677.718616792945	1031.733076159126	0
878	2677.717873833022	1031.73316474736	0
879	2678.73080901651	1031.872221552359	0
880	2678.730753312127	1031.872245459227	0
881	2679.744338797299	1031.970866443615	0
882	2678.731109559653	1031.872201745144	0
883	2679.746950894589	1031.970888302575	0
884	2679.745389933747	1031.97089404285	0
885	2693.915010489541	1033.35361571405	0
886	2693.91425387496	1033.35367475451	0
887	2694.922689634093	1033.48384159175	0
888	2693.914285442252	1033.353646407802	0
889	2694.931648411357	1033.481826696793	0
890	2694.931822183197	1033.481842816572	0
891	2695.9495817327	1033.435127797531	0
892	2694.922242638609	1033.483880254732	0
893	2695.948830668381	1033.435122476381	0
894	2694.93198806534	1033.481900166469	0
895	2695.952323875849	1033.43536112935	0
896	2695.949344420824	1033.435061056847	0
897	2697.96143752759	1033.158070245863	0
898	2697.961408054739	1033.158070695798	0
899	2698.958942951193	1032.999743396753	0
900	2697.96175791378	1033.158064348726	0
901	2698.959329566633	1032.999702966794	0
902	2698.95925370885	1032.999701940438	0
903	2708.029252480201	1031.777188579839	0
904	2708.029342440787	1031.777172279154	0
905	2708.994166482158	1031.443658942171	0
906	2708.029514700565	1031.777196836115	0
907	2708.994592158029	1031.443652841748	0
908	2708.99453993108	1031.443666279834	0
909	2714.954111245985	1030.162460102148	0
910	2714.954027052249	1030.162470551428	0
911	2715.910218094969	1029.833103544431	0
912	2714.955047917765	1030.162334090099	0
913	2715.910277066383	1029.833115764208	0
914	2715.910411945166	1029.833115242213	0
915	2741.930775332656	1024.795168113418	0
916	2741.930207650662	1024.795090029322	0
917	2742.934799799981	1024.603541437336	0
918	2741.93073925942	1024.795170739284	0
919	2742.934879600356	1024.603639857055	0
920	2742.935072712042	1024.603558645447	0
921	2771.287196503157	1022.636274518043	0
922	2771.286937430456	1022.636312610313	0
923	2772.275109521369	1022.38328668737	0
924	2771.287242142907	1022.636272890901	0
925	2772.276553924036	1022.384121723522	0
926	2772.275593541189	1022.383241220329	0
927	2773.285232622508	1022.25112673154	0
928	2772.276308414871	1022.384101179301	0
929	2773.284399789929	1022.251088019431	0
930	2773.285411987738	1022.251121266136	0
931	2779.306965544492	1021.37838449596	0
932	2779.306750567218	1021.378396723742	0
933	2780.317609102916	1021.289660939478	0
934	2779.306965543492	1021.378384495985	0
935	2780.318270449843	1021.289657226503	0
936	2780.318062682359	1021.289699602583	0
937	2792.498043236343	1020.488469470242	0
938	2792.497840956853	1020.48849278717	0
939	2794.532019294833	1020.389188053429	0
940	2792.499096859392	1020.488271674403	0
941	2794.532247858851	1020.389072889917	0
942	2794.532071392005	1020.389207789471	0
943	2800.638821818358	1020.69419829657	0
944	2800.638546384037	1020.694235728008	0
945	2801.648793232305	1020.811252892404	0
946	2800.645339492788	1020.693806091115	0
947	2801.649368953641	1020.811202178235	0
948	2801.648799636796	1020.811252562659	0
949	2806.685139415321	1021.435821015613	0
950	2806.684987068964	1021.435854575725	0
951	2807.67516067769	1021.658023775754	0
952	2806.685598233754	1021.435714508754	0
953	2807.676538107628	1021.657958275766	0
954	2807.67647637041	1021.657937429197	0
955	2808.67656855611	1021.828295362643	0
956	2808.676344389629	1021.828260315215	0
957	2809.662466159885	1022.062386063773	0
958	2808.676707507879	1021.828238060831	0
959	2809.664254881003	1022.061914411903	0
960	2809.663609184347	1022.062507433497	0
961	2810.659030075625	1022.264338539869	0
962	2810.658602560327	1022.264201263356	0
963	2811.657532051441	1022.444817525139	0
964	2810.659104430647	1022.264341814706	0
965	2811.657903258791	1022.445004701794	0
966	2811.657826753603	1022.445049957107	0
967	2817.604900024474	1023.862547151631	0
968	2817.605111862657	1023.862618078572	0
969	2818.610617376597	1024.009742206939	0
970	2817.606297263402	1023.862845747812	0
971	2818.610525107334	1024.009783121296	0
972	2818.610750661983	1024.009776890649	0
973	2838.592920865751	1027.867982588686	0
974	2838.592649634575	1027.867954312047	0
975	2839.55350887231	1028.199333232515	0
976	2838.593138860735	1027.868012056484	0
977	2839.553698844477	1028.199325171665	0
978	2839.553466102807	1028.19932359805	0
979	2849.472543977565	1030.433732675767	0
980	2849.471279464249	1030.433881344224	0
981	2850.476494969443	1030.601627309031	0
982	2849.472889021449	1030.433774315375	0
983	2850.477176649028	1030.601739097721	0
984	2850.47717665002	1030.60173909759	0
985	2856.419923757184	1032.047415279719	0
986	2856.419849872786	1032.047383369973	0
987	2857.419162854877	1032.274776801848	0
988	2856.420761013012	1032.047284477227	0
989	2857.420449483349	1032.274739081992	0
990	2857.419999535455	1032.274839687713	0
991	2861.332071203074	1033.389574128544	0
992	2861.33230577024	1033.389544790721	0
993	2862.343940388002	1033.537852484817	0
994	2861.332419379725	1033.389648053249	0
995	2862.344336276148	1033.538001500148	0
996	2862.344147194462	1033.537899575127	0
997	2867.314888610691	1035.242768831795	0
998	2867.31921205156	1035.243159596709	0
999	2867.345950611481	1035.245202804198	0
1000	2867.345956515897	1035.245202641566	0
1001	2871.556480917831	1036.001034935434	0
1002	2871.557132078037	1036.001289854225	0
1003	2872.574746771629	1036.143258732753	0
1004	2871.557161556261	1036.001145131262	0
1005	2872.574255715854	1036.142918121919	0
1006	2872.575240365791	1036.143158393894	0
1007	2875.594948795851	1036.689461529778	0
1008	2875.594986269663	1036.689680384414	0
1009	2876.595692470472	1036.960852057057	0
1010	2875.595123868836	1036.689501788459	0
1011	2876.594190073977	1036.960608505039	0
1012	2876.594692968534	1036.960725035519	0
1013	2877.606966273374	1037.150364748398	0
1014	2876.596902126319	1036.96084752546	0
1015	2877.616710950435	1037.148695957706	0
1016	2877.606940430689	1037.15036694692	0
1017	2878.625458057582	1037.280715023649	0
1018	2877.61780720491	1037.148835107397	0
1019	2878.625320633412	1037.280617551689	0
1020	2878.626419333254	1037.280849649252	0
1021	2884.729461279176	1038.444186377526	0
1022	2884.720684728022	1038.447858775509	0
1023	2885.729932902427	1038.551615034958	0
1024	2884.730085493752	1038.444356076196	0
1025	2885.74276482475	1038.551134774826	0
1026	2885.740797669921	1038.550945560812	0
1027	2896.755963142994	1039.909911330843	0
1028	2896.763832737517	1039.910629453544	0
1029	2897.741475798722	1039.960882881644	0
1030	2897.740041263017	1039.96055596445	0
1031	2915.305126227709	1039.269445449043	0
1032	2915.30512622672	1039.269445448903	0
1033	2916.267818281712	1038.995805284513	0
1034	2915.305871437216	1039.269582640794	0
1035	2916.275030685827	1038.997209812999	0
1036	2916.268760748882	1038.995764344859	0
1037	2919.314634652765	1038.48263805198	0
1038	2919.314769177988	1038.482633416944	0
1039	2920.33962591497	1038.42441147558	0
1040	2919.310172687302	1038.482133064371	0
1041	2920.337852717141	1038.424429330893	0
1042	2920.339817760144	1038.424386578492	0
1043	2952.682839769264	1033.973703605621	0
1044	2952.68277284225	1033.97370160174	0
1045	2953.665170605327	1033.720076355139	0
1046	2952.683196335028	1033.973722185137	0
1047	2953.6638399782	1033.720310113789	0
1048	2953.665192140852	1033.720066221077	0
1049	2954.661565966752	1033.505713382091	0
1050	2954.661342809339	1033.505699127511	0
1051	2955.668129286714	1033.398802529108	0
1052	2954.664045520217	1033.505541791049	0
1053	2955.668724702462	1033.398813015755	0
1054	2955.668512906201	1033.398817473915	0
1055	2968.576611149946	1030.474529409987	0
1056	2968.577339318874	1030.474411014468	0
1057	2969.574348689016	1030.311937289286	0
1058	2968.577578407461	1030.474329561268	0
1059	2969.573785245682	1030.312192496352	0
1060	2969.575950570887	1030.310858511993	0
1061	2970.56574371007	1030.104534190121	0
1062	2969.574321707023	1030.311931807589	0
1063	2970.565396606174	1030.104440609305	0
1064	2970.565275495487	1030.104429030091	0
1065	2979.518371577257	1028.164702971716	0
1066	2979.518516374246	1028.164678028347	0
1067	2980.519526343387	1027.965310556631	0
1068	2979.518552364238	1028.164718260311	0
1069	2980.520472473007	1027.965710605293	0
1070	2980.51960794979	1027.965316919283	0
1071	2981.528978178529	1027.868011410962	0
1072	2980.520472473944	1027.965710605641	0
1073	2981.529320183146	1027.86797909633	0
1074	2981.529380079419	1027.867979498217	0
1075	2982.536567403887	1027.743444330025	0
1076	2982.53676918198	1027.743529928169	0
1077	2983.546985544719	1027.641534576681	0
1078	2982.536610093952	1027.743430696569	0
1079	2983.548131225341	1027.641396568951	0
1080	2983.546977833117	1027.641540340468	0
1081	2986.581592564909	1027.487509241472	0
1082	2986.581283644437	1027.487500430405	0
1083	2987.594629583447	1027.458657856419	0
1084	2986.581549397077	1027.487508244839	0
1085	2987.595153696121	1027.458740758007	0
1086	2987.59529491216	1027.458740979338	0
1087	2988.614069471246	1027.534432300377	0
1088	2988.613714580845	1027.534495858814	0
1089	2989.620242417921	1027.627245800675	0
1090	2988.614105102632	1027.534430688409	0
1091	2989.620258078259	1027.627218692043	0
1092	2989.620485947286	1027.627244154921	0
1093	2997.722715318148	1027.98948932645	0
1094	2997.722748483317	1027.989490149383	0
1095	2998.740996608674	1027.980634549158	0
1096	2997.723926929604	1027.989505152213	0
1097	2998.741811766623	1027.980699910022	0
1098	2998.74248772903	1027.980716353136	0
1099	3002.796836273992	1028.229870626877	0
1100	3002.797183243755	1028.229874706277	0
1101	3003.812523001032	1028.320649770625	0
1102	3002.797756786139	1028.229858604882	0
1103	3003.813565670077	1028.320763266857	0
1104	3003.812783344441	1028.320639461424	0
1105	3004.807344767039	1028.52360959121	0
1106	3003.812378225061	1028.320461491783	0
1107	3004.807210787088	1028.523603363373	0
1108	3004.807317339401	1028.523594276996	0
1109	3021.902756245183	1031.188972323291	0
1110	3021.902756244863	1031.188972324238	0
1111	3022.915469386479	1031.289715898395	0
1112	3021.902757181873	1031.188923454288	0
1113	3022.916609716492	1031.289792164271	0
1114	3022.916054816896	1031.289720581894	0
1115	3025.947321354958	1031.698008838169	0
1116	3025.946794625411	1031.697806515434	0
1117	3026.960651073351	1031.767353949685	0
1118	3025.949994457515	1031.692334842523	0
1119	3026.960301076148	1031.769879484711	0
1120	3025.947446624807	1031.69801823917	0
1121	3026.961157364374	1031.767463618285	0
1122	3026.960488662477	1031.767336115489	0
1123	3028.989419332598	1031.663224505995	0
1124	3028.989664271568	1031.663229780713	0
1125	3030.000355151015	1031.61061394382	0
1126	3028.990048849869	1031.663191887515	0
1127	3030.000798913983	1031.610563156971	0
1128	3030.000952714076	1031.610467010094	0
1129	3032.039502085563	1031.510066398338	0
1130	3032.03942004437	1031.51009843923	0
1131	3033.044160079875	1031.355455734672	0
1132	3032.040165260497	1031.510174208484	0
1133	3033.044079481253	1031.355520795051	0
1134	3033.044050478026	1031.355469754425	0
1135	3038.099051454679	1030.704596965918	0
1136	3038.099364811741	1030.704628523344	0
1137	3039.095212488733	1030.497370874693	0
1138	3038.100573991574	1030.704547478999	0
1139	3039.095506637259	1030.497360363079	0
1140	3039.095406629853	1030.497372333404	0
1141	3048.071759978569	1028.700901280158	0
1142	3048.071882539687	1028.700866703133	0
1143	3049.059011778974	1028.460877224902	0
1144	3048.071635217488	1028.700991989203	0
1145	3049.059392380044	1028.461056928657	0
1146	3049.059224415815	1028.460854917751	0
1147	3054.054649605683	1027.389161572494	0
1148	3054.053959463535	1027.389157000415	0
1149	3055.031855695895	1027.095258806181	0
1150	3054.05492399324	1027.389140362989	0
1151	3055.033275653201	1027.095238664523	0
1152	3055.031273654037	1027.095335049343	0
1153	3055.974023282799	1026.707488445634	0
1154	3055.973685778624	1026.707511931475	0
1155	3056.975090547689	1026.443358714659	0
1156	3055.974425416219	1026.707455163199	0
1157	3056.97590907107	1026.443359069202	0
1158	3056.975420424097	1026.443490898199	0
1159	3059.001920720419	1026.0797711598	0
1160	3059.001852805933	1026.079779705613	0
1161	3060.033590177917	1026.059505723854	0
1162	3059.004370084915	1026.079358885	0
1163	3060.035981666537	1026.059408612498	0
1164	3060.035691162994	1026.059424460024	0
1165	3069.011686618685	1024.058636249733	0
1166	3068.86861163812	1024.068376633766	0
1167	3068.326485658054	1023.112364094471	0
1168	3069.010507306463	1024.058637821018	0
1169	3068.327257100364	1023.112704713633	0
1170	3068.327613435868	1023.112836292468	0
1171	3069.624816684615	1024.012568575608	0
1172	3069.045894779952	1024.058204156867	0
1173	3070.907089283949	1024.505730449323	0
1174	3069.614467352217	1024.012498317424	0
1175	3070.911838176103	1024.506312321789	0
1176	3070.906645785512	1024.504741758964	0
1177	3079.300780051894	1023.452410752955	0
1178	3079.300720103831	1023.452324777145	0
1179	3080.329989940337	1023.437396287829	0
1180	3079.300799910476	1023.452426952597	0
1181	3080.329142275909	1023.437715359658	0
1182	3080.329239101409	1023.437742754726	0
1183	3081.351689690501	1023.480068238951	0
1184	3081.351007754018	1023.480127263259	0
1185	3082.363054671217	1023.465519288954	0
1186	3081.351806199706	1023.479992453382	0
1187	3082.370828609396	1023.464815166881	0
1188	3082.363833914011	1023.465446401328	0
1189	3083.375368542163	1023.486728096758	0
1190	3082.370775703958	1023.464820704188	0
1191	3083.380583743551	1023.487321075906	0
1192	3083.380452042635	1023.487312790707	0
1193	3102.665273411176	1025.482239184568	0
1194	3102.6661193955	1025.48224831143	0
1195	3103.640584912862	1025.732185030487	0
1196	3102.665663713252	1025.482260843832	0
1197	3103.640162405405	1025.732124291287	0
1198	3103.640063193141	1025.732172809162	0
1199	3109.649785950681	1026.973622865383	0
1200	3109.649904204577	1026.973643358106	0
1201	3110.64453360634	1027.205144471024	0
1202	3109.649869602684	1026.973626038859	0
1203	3110.644609366475	1027.205114337065	0
1204	3110.645239881012	1027.205156142314	0
1205	3116.705687257951	1028.065819042038	0
1206	3116.705890398798	1028.065803811326	0
1207	3117.683175148683	1028.372482790761	0
1208	3116.706223986146	1028.065707550632	0
1209	3117.685307729942	1028.372347558586	0
1210	3117.685886924704	1028.372333545508	0
1211	3124.788543070328	1029.151076389227	0
1212	3124.788569369765	1029.15106256144	0
1213	3125.79601808843	1029.32142401831	0
1214	3124.79132793508	1029.151298449093	0
1215	3125.795337540293	1029.321513324453	0
1216	3125.796100598634	1029.3214334013	0
1217	3131.92101340625	1029.618452152764	0
1218	3131.920670408431	1029.618502959638	0
1219	3132.892786670674	1029.788115089335	0
1220	3131.920976437048	1029.61850507243	0
1221	3132.893963535332	1029.788175091949	0
1222	3132.892614620993	1029.788141118299	0
1223	3137.658668754796	1029.513132373487	0
1224	3137.658650079948	1029.513134902739	0
1225	3137.777091085877	1029.508391472832	0
1226	3137.77681922082	1029.50838487927	0
1227	3148.574457309978	1028.151756376937	0
1228	3148.571980496416	1028.152092785155	0
1229	3149.565961375331	1027.86035793222	0
1230	3148.576561540895	1028.152075491789	0
1231	3149.568173947488	1027.860289013907	0
1232	3149.56862645188	1027.860210592959	0
1233	3153.560470029191	1027.046468374807	0
1234	3153.56045931348	1027.046456364015	0
1235	3154.597788946866	1026.983203114275	0
1236	3153.559409413514	1027.04639277378	0
1237	3154.594037795608	1026.983603367947	0
1238	3154.597768075419	1026.983202522282	0
1239	3197.071460107031	1021.15385592045	0
1240	3197.071648691034	1021.153828900229	0
1241	3198.034176185012	1020.810170028102	0
1242	3197.072433718489	1021.153729287919	0
1243	3198.035211644773	1020.810111722786	0
1244	3198.035040374652	1020.810041858724	0
1245	3199.016110460495	1020.522566821501	0
1246	3199.015985439723	1020.52256367765	0
1247	3200.010414035692	1020.343807988102	0
1248	3199.016323072358	1020.522573376972	0
1249	3200.011113940948	1020.344252417078	0
1250	3200.010335396562	1020.343798691238	0
1251	3204.998376351122	1019.159683218041	0
1252	3204.998653764385	1019.15967212478	0
1253	3205.97326865479	1018.85517141004	0
1254	3204.999366947327	1019.159662859987	0
1255	3205.974286674967	1018.855071310996	0
1256	3205.973537378955	1018.855138948179	0
1257	3218.131244159879	1017.158430815181	0
1258	3218.13107964932	1017.158368673405	0
1259	3219.138081316123	1017.059767062766	0
1260	3218.131288302433	1017.15839269211	0
1261	3219.146838551782	1017.060479780969	0
1262	3219.147617548032	1017.060545134147	0
1263	3225.295898569846	1016.773819987752	0
1264	3225.295389007009	1016.773756381629	0
1265	3226.323447775648	1016.79573198851	0
1266	3225.296278469591	1016.773842654588	0
1267	3226.321238642472	1016.795925225902	0
1268	3226.323007009154	1016.795978643649	0
1269	3232.461841297558	1016.671070631178	0
1270	3232.46081687826	1016.670979916911	0
1271	3233.478016988289	1016.536107305355	0
1272	3232.461724132932	1016.67107042031	0
1273	3233.477376017755	1016.536330693042	0
1274	3233.477417962332	1016.536345380863	0
1275	3240.68539967823	1016.577791447331	0
1276	3240.685301035383	1016.577709529186	0
1277	3241.711212509305	1016.578228263981	0
1278	3240.687307884532	1016.577822783902	0
1279	3241.711654920176	1016.578253750074	0
1280	3241.711297753897	1016.578252825548	0
1281	3243.788573987737	1016.603150403575	0
1282	3243.788552898372	1016.603149360776	0
1283	3244.815579138532	1016.64342259122	0
1284	3243.790014413538	1016.603168990131	0
1285	3244.821595682777	1016.643439982594	0
1286	3244.817020942969	1016.643679876092	0
1287	3245.836044216085	1016.857683511669	0
1288	3245.834920021226	1016.857653353575	0
1289	3246.834032666974	1017.097794151776	0
1290	3245.836150868293	1016.857681462	0
1291	3246.836816167937	1017.098012806351	0
1292	3246.837344377251	1017.098191743039	0
1293	3269.362953323075	1020.796685612203	0
1294	3269.359853808402	1020.795799295282	0
1295	3270.398985734284	1020.916313884056	0
1296	3269.362704561498	1020.796649387998	0
1297	3270.404002952149	1020.917972400795	0
1298	3270.404023984892	1020.917987813294	0
1299	3272.554158439852	1021.821828003141	0
1300	3272.554077271128	1021.821820226846	0
1301	3272.636522736243	1021.841243353987	0
1302	3272.563149136657	1021.823792607559	0
1303	3283.451414572844	1022.993558111626	0
1304	3283.452635234187	1022.99375423943	0
1305	3284.490954124411	1022.968083311052	0
1306	3283.451830821363	1022.993582765109	0
1307	3284.49604960649	1022.967983210757	0
1308	3284.496532549599	1022.968016274353	0
1309	3301.633774701781	1024.767629547743	0
1310	3301.628008240305	1024.767566499886	0
1311	3302.760038986342	1025.007816271578	0
1312	3301.633604282208	1024.767652021323	0
1313	3302.763444168383	1025.007600978458	0
1314	3302.76039807496	1025.007951009473	0
1315	3309.396378457454	1025.688991501047	0
1316	3309.396834456517	1025.688789061219	0
1317	3310.466689898744	1025.963548259057	0
1318	3309.395520375837	1025.688479144218	0
1319	3310.470084153125	1025.964490931341	0
1320	3310.469742675562	1025.963627624041	0
1321	3326.883208528983	1027.715421367409	0
1322	3326.868078777436	1027.714623448355	0
1323	3328.013497342738	1028.105919916146	0
1324	3326.882609037767	1027.715244955389	0
1325	3328.036204650965	1028.104362506642	0
1326	3328.029677524367	1028.102019516553	0
1327	3346.314515400682	1031.380470878192	0
1328	3346.314569984138	1031.380470774286	0
1329	3338.74941365763	1040.253649049693	0
1330	3338.762647621658	1040.236686809788	0
1331	3338.185115820379	1041.364944911222	0
1332	3338.749413658476	1040.253649049159	0
1333	3338.186227945043	1041.363302594474	0
1334	3338.186227944589	1041.363302595365	0
1335	3337.93860274429	1043.859704094815	0
1336	3337.938484952241	1043.858880449017	0
1337	3338.152902259779	1045.031428899442	0
1338	3337.943596365883	1043.85718048263	0
1339	3338.157059299469	1045.014618485863	0
1340	3338.156912302181	1045.016980756955	0
1341	3339.587413355946	1046.73345469454	0
1342	3339.587262632491	1046.733550349421	0
1343	3340.585907849637	1047.142869055282	0
1344	3339.589402728994	1046.732730354563	0
1345	3340.586643901945	1047.142246497524	0
1346	3340.585343678477	1047.1426746016	0
1347	3348.137530114027	1046.438280738603	0
1348	3348.136934318325	1046.438091144259	0
1349	3348.953313319939	1045.791872426815	0
1350	3348.138294301607	1046.436330950922	0
1351	3348.958281065979	1045.787552454185	0
1352	3348.953569876818	1045.792783345289	0
1353	3349.655404089072	1045.012319414393	0
1354	3349.656509633891	1045.013142179715	0
1355	3350.208446849452	1044.131210002347	0
1356	3349.670720226225	1045.00176949373	0
1357	3350.21000215815	1044.128086476279	0
1358	3350.208317498646	1044.131375193661	0
1359	3346.503800136305	1031.275516138125	0
1360	3346.515730120118	1031.268339068882	0
1361	3349.25747450755	1029.618739092143	0
1362	3349.267990749775	1029.609673561772	0
1363	3352.072919074943	1028.149185839815	0
1364	3349.266313305639	1029.620115746224	0
1365	3352.109602633378	1028.142217111005	0
1366	3352.074699719974	1028.148102362314	0
1367	3353.325035696287	1027.607189137845	0
1368	3352.112578237585	1028.140105874631	0
1369	3353.33427698142	1027.605713602309	0
1370	3353.333444326146	1027.604709679262	0
1371	3359.143203253042	1025.259159275969	0
1372	3359.138157986209	1025.258712090691	0
1373	3360.259584740758	1024.828894845908	0
1374	3359.142886865516	1025.259220961145	0
1375	3360.277230199343	1024.826025031907	0
1376	3359.147928433149	1025.258525222568	0
1377	3360.267448636191	1024.827837546551	0
1378	3360.27001868381	1024.827136275272	0
1379	3369.790065624737	1022.402452104175	0
1380	3369.79898321076	1022.399413437082	0
1381	3370.939243300994	1022.006042474365	0
1382	3369.800942177958	1022.398869960906	0
1383	3370.940188674247	1022.006255031733	0
1384	3370.941545118317	1022.006127003451	0
1385	3373.326431933305	1021.243083852709	0
1386	3373.316958592094	1021.246272721234	0
1387	3374.582281314258	1020.835200224191	0
1388	3373.325829516119	1021.243285569111	0
1389	3374.58603466727	1020.834060404403	0
1390	3374.595280486682	1020.830831772201	0
1391	3380.953723279083	1017.96544522933	0
1392	3380.817425215304	1017.979849588033	0
1393	3375.854571877531	1016.438676543009	0
1394	3375.843057902647	1016.436754449541	0
1395	3375.524980477455	1015.37206615167	0
1396	3375.839975139437	1016.434921066575	0
1397	3375.531762159751	1015.371162707598	0
1398	3375.532695942687	1015.371004186246	0
1399	3382.205165574761	1011.577330144736	0
1400	3382.200639665478	1011.581450102771	0
1401	3383.146084943352	1012.016419497577	0
1402	3382.205447831553	1011.584719290799	0
1403	3383.164800850615	1012.014321149132	0
1404	3383.162599536735	1012.013962318615	0
1405	3381.04051864296	1017.959279892669	0
1406	3381.049448206402	1017.958263411774	0
1407	3386.898445391204	1017.935479827836	0
1408	3386.891723445664	1017.936287671281	0
1409	3388.156416159116	1017.829110196548	0
1410	3386.8979984435	1017.935809752207	0
1411	3388.168162793878	1017.827713223257	0
1412	3388.152242344238	1017.829137698434	0
1413	3389.380545048372	1017.871626186624	0
1414	3388.177192927928	1017.843159217867	0
1415	3389.359054375313	1017.877562801276	0
1416	3389.360918284168	1017.877252795277	0
1417	3396.817706991783	1016.635526440285	0
1418	3396.816373762647	1016.635773716776	0
1419	3396.971674064906	1016.613635217124	0
1420	3396.97354790219	1016.613458697595	0
1421	3398.363061924336	1016.447269019182	0
1422	3398.36927246859	1016.445453766349	0
1423	3399.449597638584	1016.328386631104	0
1424	3398.362654800227	1016.447254430422	0
1425	3399.446045406383	1016.329170597151	0
1426	3399.448332926975	1016.328501952471	0
1427	3401.601635311522	1015.733292036673	0
1428	3401.595168643329	1015.733148146338	0
1429	3402.691217997997	1015.537371549162	0
1430	3401.603113576442	1015.732697658726	0
1431	3402.69229110561	1015.537314921449	0
1432	3402.692191794682	1015.537336155062	0
1433	3411.029984077664	1013.71022138802	0
1434	3411.030274603849	1013.710180620991	0
1435	3412.062715851262	1013.405120950741	0
1436	3411.032958527159	1013.709669514286	0
1437	3412.066375255523	1013.404371965885	0
1438	3412.063404475457	1013.405005302032	0
1439	3417.23967109724	1012.354925841292	0
1440	3417.239261044994	1012.354989609909	0
1441	3418.292942367731	1012.114960801565	0
1442	3417.239653876174	1012.354902735118	0
1443	3418.294531145742	1012.114842424068	0
1444	3418.292201099435	1012.115177489649	0
1445	3428.756942641965	1010.405553902795	0
1446	3428.396154902445	1010.377176008907	0
1447	3429.117572656184	1010.432835348503	0
1448	3428.760549460438	1010.4049037174	0
1449	3432.896617282227	1009.550628670657	0
1450	3432.895820886636	1009.550710981953	0
1451	3433.940030583848	1009.642214571618	0
1452	3432.897880731163	1009.551127855513	0
1453	3433.93932696181	1009.642774792211	0
1454	3433.938294236596	1009.642723081138	0
1455	3444.31998577156	1009.30626316929	0
1456	3444.31935846378	1009.30630188803	0
1457	3445.354242357423	1009.283501577194	0
1458	3444.320471547259	1009.306149123848	0
1459	3445.354701408825	1009.283395156397	0
1460	3445.35470601164	1009.283427880977	0
1461	3456.747491932636	1009.494706779217	0
1462	3456.746369269131	1009.494676120124	0
1463	3457.7929382537	1009.522566148631	0
1464	3456.747128975425	1009.494763420741	0
1465	3457.793935735382	1009.522869170825	0
1466	3457.794032110399	1009.52284281292	0
1467	3458.835537532421	1009.635050828835	0
1468	3458.835528225524	1009.635052950341	0
1469	3459.86059399718	1009.728849080778	0
1470	3458.835978481477	1009.634936837957	0
1471	3459.861243689497	1009.7288004268	0
1472	3459.86059399818	1009.728849080739	0
1473	3463.958452536796	1010.249737557137	0
1474	3463.958526064794	1010.249757412026	0
1475	3464.975655279407	1010.368255783033	0
1476	3463.959977716167	1010.249738500377	0
1477	3464.975294566568	1010.368183849789	0
1478	3464.975655280293	1010.368255782569	0
1479	3465.995703632378	1010.441958331991	0
1480	3465.994442739247	1010.441900614053	0
1481	3468.04690438646	1010.704100775646	0
1482	3465.995906876759	1010.441982678538	0
1483	3468.048209637737	1010.704176892119	0
1484	3468.048381367574	1010.704158635355	0
1485	3473.139016206293	1011.374508470448	0
1486	3473.134690527281	1011.374799712934	0
1487	3474.167905528196	1011.484853239142	0
1488	3473.137901968127	1011.374485873023	0
1489	3474.168698890789	1011.484733491925	0
1490	3474.168289986402	1011.484714995894	0
1491	3481.260744044372	1012.579153668016	0
1492	3481.261011291309	1012.579818479131	0
1493	3482.288451402072	1012.713003778739	0
1494	3481.261173089011	1012.579141788705	0
1495	3482.286448148627	1012.712449166872	0
1496	3482.287291839736	1012.712522141338	0
1497	3505.782662872013	1015.439515739817	0
1498	3505.783832172838	1015.439639035448	0
1499	3506.796691202507	1015.694110544239	0
1500	3505.790006209049	1015.440486887757	0
1501	3506.7988772209	1015.694257690171	0
1502	3506.799048385355	1015.694269599972	0
1503	3507.853029410821	1015.785889033507	0
1504	3507.850688225125	1015.785368367852	0
1505	3508.841093093087	1016.155428760979	0
1506	3507.853183442502	1015.785984588859	0
1507	3508.855708995144	1016.154945869854	0
1508	3508.854709878126	1016.154436099185	0
1509	3513.319704304966	1017.122918317921	0
1510	3513.287364844974	1017.12078824052	0
1511	3513.35177721832	1017.128490341001	0
1512	3513.348122342665	1017.127884119287	0
1513	3517.047295565404	1016.893624757058	0
1514	3517.050010541459	1016.894150716757	0
1515	3517.285613653637	1016.895329662333	0
1516	3517.128692077491	1016.894031382447	0
1517	3519.512495250601	1016.823005623041	0
1518	3519.490760649895	1016.823814890198	0
1519	3521.538823735908	1016.149219252898	0
1520	3519.511221884358	1016.823515892169	0
1521	3521.555508822096	1016.146606835336	0
1522	3521.556361534473	1016.146575858218	0
1523	3528.914567594356	1015.156052312671	0
1524	3528.912568924556	1015.156049520926	0
1525	3529.928918767519	1014.985715082165	0
1526	3528.914160129186	1015.156100888627	0
1527	3529.932102679782	1014.985573134559	0
1528	3529.934267624022	1014.985288516438	0
1529	3535.00892785036	1014.048999874613	0
1530	3535.008921504008	1014.048999537343	0
1531	3535.992672757222	1013.829591908342	0
1532	3535.010873611925	1014.048982575761	0
1533	3536.009033540181	1013.831091170445	0
1534	3535.992609010583	1013.82958770815	0
1535	3537.01295720764	1013.604240436865	0
1536	3536.00928273061	1013.831049128714	0
1537	3537.015097300048	1013.604053003885	0
1538	3537.012741174659	1013.604266275816	0
1539	3542.116770603649	1013.172993927112	0
1540	3542.1168021992	1013.173004090051	0
1541	3543.100004259239	1012.930143741052	0
1542	3542.118017048517	1013.172992178592	0
1543	3543.100967953354	1012.930183047057	0
1544	3543.099940765275	1012.930160381714	0
1545	3544.094816494084	1012.663951050283	0
1546	3544.095601847043	1012.663819144038	0
1547	3545.086241417702	1012.432766696517	0
1548	3544.094723141365	1012.663968238209	0
1549	3545.086577835768	1012.433029299567	0
1550	3544.096002037608	1012.663916034955	0
1551	3545.087161100477	1012.432990417325	0
1552	3545.086506053761	1012.43301871679	0
1553	3557.209596707696	1010.888130663268	0
1554	3557.20960623046	1010.888125341348	0
1555	3558.219422526318	1010.760092012067	0
1556	3557.209830466642	1010.88809854865	0
1557	3558.219961614868	1010.760048305812	0
1558	3558.219868251469	1010.760054509429	0
1559	3574.433959863602	1009.526273008095	0
1560	3574.43190623157	1009.526130056086	0
1561	3575.4485612097	1009.497073592003	0
1562	3574.433711279638	1009.526281478437	0
1563	3575.450157865322	1009.497184418666	0
1564	3575.449839266154	1009.497180922927	0
1565	3587.642494590938	1010.286388011695	0
1566	3587.642231307122	1010.286413375401	0
1567	3588.641749283595	1010.446336382267	0
1568	3587.6425369885	1010.286389750717	0
1569	3588.642158331519	1010.446320879567	0
1570	3588.641974524629	1010.446327365593	0
1571	3627.918076293108	1014.994634525174	0
1572	3627.918596092057	1014.994689372481	0
1573	3628.90821831716	1015.220188162025	0
1574	3627.918134878095	1014.994635948495	0
1575	3628.907988956168	1015.22015935643	0
1576	3628.908022561299	1015.220151783113	0
1577	3629.909726445216	1015.386689456187	0
1578	3628.908167670955	1015.220118243846	0
1579	3629.910823982395	1015.386550037737	0
1580	3629.909739820429	1015.386682226722	0
1581	3636.013362383374	1015.296298293443	0
1582	3636.012473337906	1015.296397137875	0
1583	3637.01432153795	1015.164077389091	0
1584	3636.01359897357	1015.296300261004	0
1585	3637.016449536949	1015.164113497505	0
1586	3637.016263527083	1015.164134383711	0
1587	3638.030566013776	1015.064524034827	0
1588	3637.018222928604	1015.164184111089	0
1589	3638.032191975332	1015.064484377856	0
1590	3638.03060416601	1015.064525102347	0
1591	3661.240011873234	1012.220649803224	0
1592	3661.240124163929	1012.22059870884	0
1593	3662.251090367747	1012.185772014623	0
1594	3661.239948440594	1012.220649487103	0
1595	3662.250878844265	1012.186020472166	0
1596	3662.2517605566	1012.186010672127	0
1597	3667.324806646347	1012.027144986009	0
1598	3667.324065436734	1012.027159606562	0
1599	3668.347091984983	1012.064440439459	0
1600	3667.324580936755	1012.027132797135	0
1601	3668.347861277015	1012.064449430863	0
1602	3668.348058399783	1012.064457589148	0
1603	3680.447016508638	1013.317457192239	0
1604	3680.447842797607	1013.317463398185	0
1605	3681.459625508667	1013.299778856784	0
1606	3680.447485860775	1013.317433326727	0
1607	3681.459587242803	1013.299806625669	0
1608	3681.459720835924	1013.299835349327	0
1609	3690.583879715403	1013.434898830649	0
1610	3690.583107460435	1013.434771890801	0
1611	3691.60073544605	1013.437495101631	0
1612	3690.583913058448	1013.434906635051	0
1613	3691.600909190988	1013.437541228334	0
1614	3691.601032159005	1013.437548726642	0
1615	3698.66334368235	1014.37801208709	0
1616	3698.652320213222	1014.375914638211	0
1617	3699.67123277501	1014.481757805501	0
1618	3698.663263818554	1014.378004729694	0
1619	3699.673498817635	1014.482239285029	0
1620	3699.67103794775	1014.481735359593	0
1621	3708.021288131907	1015.616994077613	0
1622	3708.023584908177	1015.617531887604	0
1623	3708.101524593637	1015.636522535684	0
1624	3708.099267625235	1015.636019029492	0
1625	3734.01113556541	1021.963993053391	0
1626	3734.011106949533	1021.963974944247	0
1627	3735.930821363165	1022.641153054374	0
1628	3734.011791885971	1021.963902690383	0
1629	3735.932303516258	1022.641085257341	0
1630	3735.932154576314	1022.641039726406	0
1631	3752.529517587989	1027.507679913109	0
1632	3752.52933548601	1027.507668376923	0
1633	3753.482634899065	1027.86357144528	0
1634	3752.529331831955	1027.508049634179	0
1635	3753.483192890513	1027.863915332093	0
1636	3752.530824972562	1027.507774614053	0
1637	3753.484075340844	1027.863689967739	0
1638	3753.484161098245	1027.863732923267	0
1639	3757.365241761802	1029.011573294925	0
1640	3757.363917135841	1029.011558359854	0
1641	3758.349663286987	1029.228973777151	0
1642	3757.365256001713	1029.011599954572	0
1643	3758.351230363452	1029.229100547313	0
1644	3758.351131851693	1029.229071367038	0
1645	3779.202009129378	1033.686363437222	0
1646	3779.202120394116	1033.686392397407	0
1647	3780.181086456643	1033.95720701189	0
1648	3779.201979949949	1033.68635570434	0
1649	3780.183934765217	1033.955773988767	0
1650	3780.183934766211	1033.955773988652	0
1651	3781.158011386542	1034.230980772796	0
1652	3780.183825834436	1033.955851668719	0
1653	3781.158945614054	1034.230955017886	0
1654	3781.158982649075	1034.230989025821	0
1655	3784.148066415629	1034.759399510763	0
1656	3784.147749937521	1034.759351173553	0
1657	3785.137039348996	1034.989341023401	0
1658	3784.148133148605	1034.759396148902	0
1659	3785.137128276726	1034.98925260834	0
1660	3785.13708413782	1034.989252904078	0
1661	3792.066247833509	1036.584085976295	0
1662	3792.065314110037	1036.583971921126	0
1663	3793.025259663667	1036.901139221018	0
1664	3792.066067106502	1036.584071515146	0
1665	3793.030370006108	1036.8964995383	0
1666	3793.024962426502	1036.901113735508	0
1667	3793.959721080652	1037.301760443525	0
1668	3793.031061599197	1036.896622318619	0
1669	3793.96040424534	1037.301758862957	0
1670	3793.959941827572	1037.301776826949	0
1671	3798.80603162121	1038.809584936648	0
1672	3798.805023957634	1038.809822822847	0
1673	3799.767202496009	1039.146040121762	0
1674	3798.806236486867	1038.809648804599	0
1675	3799.767613588931	1039.145970012886	0
1676	3799.767632509323	1039.146097535953	0
1677	3800.754895987201	1039.425319310125	0
1678	3800.754895393948	1039.425385276711	0
1679	3801.747720125269	1039.665358166291	0
1680	3800.754974572966	1039.425289671372	0
1681	3801.748308952191	1039.665308432366	0
1682	3801.747718975716	1039.665305262335	0
1683	3802.723951574842	1039.991017895774	0
1684	3802.723655252177	1039.991038528225	0
1685	3819.651503177634	1046.584878797335	0
1686	3802.734543897699	1039.992769425833	0
1687	4770.674996503292	1027.809367952788	0
1688	3819.65158632825	1046.584888998223	0
1689	3820.625726409246	1046.858746345713	0
1690	3819.652017748163	1046.584963828743	0
1691	3820.625836046624	1046.858734520256	0
1692	3820.625675313204	1046.858763718859	0
1693	3840.501196708634	1051.028290584903	0
1694	3840.501255400944	1051.028297963669	0
1695	3841.514880264728	1051.145548759274	0
1696	3840.50141221821	1051.028277377125	0
1697	3841.51502359614	1051.145553971192	0
1698	3841.515132184642	1051.145563173924	0
1699	3846.568145442351	1051.582743273496	0
1700	3846.568092482099	1051.582744441073	0
1701	3847.587070695336	1051.639375690138	0
1702	3846.56872524127	1051.582580832865	0
1703	3847.587302794885	1051.639088205567	0
1704	3847.587266190891	1051.639078561921	0
1705	3865.956159727796	1051.203307775914	0
1706	3865.956185053202	1051.203309707198	0
1707	3866.955168584873	1051.067159805381	0
1708	3865.956817603189	1051.203615129383	0
1709	3866.955779924167	1051.067152064336	0
1710	3866.955764565972	1051.067144133565	0
1711	3883.178552565246	1049.746392686548	0
1712	3883.178526113152	1049.746438644984	0
1713	3884.189699796786	1049.641444114817	0
1714	3883.178542418828	1049.746389519849	0
1715	3884.189472161488	1049.641402831116	0
1716	3884.189502653434	1049.641388032882	0
1717	3896.217735252918	1047.469758674774	0
1718	3896.217757415857	1047.469826294932	0
1719	3897.227655187533	1047.356897752885	0
1720	3896.217669071108	1047.469765603225	0
1721	3897.227220386083	1047.356492888985	0
1722	3897.227064793587	1047.356504259904	0
1723	3899.216944982496	1046.931351040936	0
1724	3899.216697272858	1046.931334585387	0
1725	3900.207120444255	1046.727450576298	0
1726	3899.218422295603	1046.931406703825	0
1727	3900.207424609908	1046.727450268119	0
1728	3900.20715332372	1046.727441231146	0
1729	3902.155044797467	1046.14238936238	0
1730	3902.154970538875	1046.14238480417	0
1731	3903.116479532077	1045.828693972234	0
1732	3902.155063254189	1046.142386243533	0
1733	3903.116599337842	1045.828787159627	0
1734	3903.116366468434	1045.828830859178	0
1735	3913.979529666201	1043.286698902921	0
1736	3913.979529720687	1043.286699031703	0
1737	3914.921390045931	1042.928440989864	0
1738	3913.979377039667	1043.286675929478	0
1739	3914.921416890085	1042.928450196643	0
1740	3914.921436776503	1042.928430061951	0
1741	3955.698466258626	1034.337557171559	0
1742	3955.698634008579	1034.33751655181	0
1743	3956.661655261604	1033.98355007985	0
1744	3955.698544802945	1034.337538624624	0
1745	3956.66123717333	1033.98364940513	0
1746	3956.660862073627	1033.983749288961	0
1747	3957.649900485781	1033.721187566103	0
1748	3957.649786135424	1033.72123887821	0
1749	3958.626623488934	1033.447143487801	0
1750	3957.650429247225	1033.720931640066	0
1751	3958.627505891756	1033.446823127122	0
1752	3958.626836978166	1033.447083300354	0
1753	3975.182527708711	1030.178671686139	0
1754	3975.176925879016	1030.180597384726	0
1755	3975.440139362991	1030.092566017601	0
1756	3975.448377563021	1030.089814551866	0
1757	3982.712665465138	1027.545675846294	0
1758	3982.712665466099	1027.545675846017	0
1759	3983.666617055034	1027.188330879911	0
1760	3982.712541156962	1027.54571245084	0
1761	3983.671049548234	1027.188705688923	0
1762	3983.671407968364	1027.188582203998	0
1763	3984.565479361315	1026.688455743791	0
1764	3983.666726139219	1027.188318700597	0
1765	3984.564579053848	1026.688593567048	0
1766	3984.563732982626	1026.688367886879	0
1767	3985.51128265847	1026.313989966944	0
1768	3984.565365808015	1026.688437178541	0
1769	3985.514777046019	1026.314187486003	0
1770	3985.514614987303	1026.314212624934	0
1771	3986.457685094272	1025.920219854931	0
1772	3985.515822292372	1026.314065010376	0
1773	3986.457846280793	1025.920142513886	0
1774	3986.458022661881	1025.920278416858	0
1775	3988.421517472391	1025.353727814466	0
1776	3988.421582062771	1025.353724995467	0
1777	3989.396673284686	1025.040239551679	0
1778	3988.421551877204	1025.353779045045	0
1779	3989.396919266935	1025.040274383851	0
1780	3989.396922978364	1025.040300373073	0
1781	3991.308507158095	1024.36208422521	0
1782	3991.308363994996	1024.362000473445	0
1783	3992.280994646685	1024.043468984739	0
1784	3991.308265268687	1024.362084530347	0
1785	3992.28214612466	1024.043421563115	0
1786	3992.282387598751	1024.043348875867	0
1787	3997.232156867848	1022.837229736679	0
1788	3997.231494245197	1022.837193456148	0
1789	3998.204886144443	1022.589250582201	0
1790	3997.232893383752	1022.837509088978	0
1791	3998.215504036619	1022.591464252787	0
1792	3998.215328607928	1022.591462782704	0
1793	4015.48463768622	1020.694577096993	0
1794	4015.482009599733	1020.694147564837	0
1795	4016.490024579733	1020.507271105431	0
1796	4015.484490536502	1020.694633448907	0
1797	4016.492937221904	1020.507470127527	0
1798	4016.492508153402	1020.507455485743	0
1799	4017.510887246917	1020.394055688099	0
1800	4017.510935932441	1020.394014068143	0
1801	4018.490748488289	1020.114713675843	0
1802	4017.511115878232	1020.393933382129	0
1803	4018.492690267431	1020.115109299745	0
1804	4018.486882806332	1020.11344522073	0
1805	4019.515459447094	1020.059859756964	0
1806	4018.492727172249	1020.115071689791	0
1807	4019.52332468909	1020.062145528969	0
1808	4019.515699592516	1020.059944281487	0
1809	4020.516952815717	1019.882172323788	0
1810	4020.515639835524	1019.881626297539	0
1811	4021.547173420539	1019.793602114518	0
1812	4020.51695608118	1019.882195047642	0
1813	4021.548431612367	1019.793960926556	0
1814	4021.54866179135	1019.793978053002	0
1815	4025.663681945346	1019.86509979541	0
1816	4025.662551917911	1019.864769069064	0
1817	4026.684766933414	1019.783790864379	0
1818	4025.663812927582	1019.865114367143	0
1819	4026.686567340335	1019.784291895923	0
1820	4026.685865723283	1019.784065482178	0
1821	4056.387812806682	1024.787961705961	0
1822	4056.38778509075	1024.787950749976	0
1823	4057.41575446232	1024.876251881167	0
1824	4056.387098404914	1024.787857612023	0
1825	4057.413064856761	1024.875727979761	0
1826	4057.415829745756	1024.876261785715	0
1827	4074.853775488842	1028.621224809282	0
1828	4074.854582583821	1028.621399702618	0
1829	4075.874109452887	1028.937463432899	0
1830	4074.85086292532	1028.621564641472	0
1831	4075.870539275438	1028.937173703015	0
1832	4075.873929833479	1028.937395760401	0
1833	4085.023492613576	1032.165742806571	0
1834	4085.023692572129	1032.165802764682	0
1835	4086.086325861091	1032.428685679155	0
1836	4085.026578705454	1032.166295959482	0
1837	4086.095638727875	1032.430315948917	0
1838	4086.086115559006	1032.428627362477	0
1839	4088.437683447672	1033.136386400304	0
1840	4088.302372678975	1033.134452299045	0
1841	4091.051294649808	1033.641252104382	0
1842	4088.440923028574	1033.136830762208	0
1843	4090.659806199913	1033.470148069895	0
1844	4090.657916209347	1033.469925988394	0
1845	4090.778271774268	1033.389962575534	0
1846	4090.778664517553	1033.389883359269	0
1847	4094.13408100484	1032.426617817056	0
1848	4094.136700476966	1032.426589766232	0
1849	4095.171282054655	1032.466341577419	0
1850	4094.131469009929	1032.423021213094	0
1851	4095.167072970051	1032.466399428926	0
1852	4095.171233854353	1032.46637114103	0
1853	4097.31928551304	1032.241802211486	0
1854	4097.318023363442	1032.24171788661	0
1855	4098.338948889451	1032.116982480242	0
1856	4097.31942710734	1032.241801374472	0
1857	4098.339507446977	1032.117334798907	0
1858	4098.338113584013	1032.117146334641	0
1859	4102.563738753131	1031.946334124097	0
1860	4102.564120312033	1031.946312272999	0
1861	4103.610466787631	1031.93150090942	0
1862	4102.566479769419	1031.946365465673	0
1863	4103.614382100122	1031.93179559997	0
1864	4103.610536852319	1031.931519122786	0
1865	4111.868544990752	1031.277523080236	0
1866	4111.865544682427	1031.2777357015	0
1867	4113.895069442124	1030.842474250764	0
1868	4111.867170967083	1031.277624761422	0
1869	4113.896285661518	1030.842422035545	0
1870	4113.896386558952	1030.842394794217	0
1871	4116.958161938457	1030.316478328217	0
1872	4116.958982302036	1030.316367771469	0
1873	4117.971858746015	1030.119470303858	0
1874	4116.958040785087	1030.316496076351	0
1875	4117.970989535031	1030.119633406482	0
1876	4117.971226518729	1030.11957167682	0
1877	4131.26061042955	1028.250351063151	0
1878	4131.258728760648	1028.250408940639	0
1879	4132.255470416691	1027.954580615188	0
1880	4131.260465679034	1028.250415667864	0
1881	4132.256485048503	1027.95464324815	0
1882	4132.256485049464	1027.954643247872	0
1883	4140.526274736604	1027.424085068841	0
1884	4140.524705824971	1027.424372778913	0
1885	4141.481062113358	1026.925940542288	0
1886	4140.522285517242	1027.424823681448	0
1887	4141.475704177362	1026.926071428009	0
1888	4141.481964837715	1026.925872936033	0
1889	4145.381850458356	1026.424002948132	0
1890	4145.382556546713	1026.423245639239	0
1891	4145.438477082214	1026.450889249072	0
1892	4145.395723973427	1026.438755611846	0
1893	4145.534757892778	1026.292669112013	0
1894	4145.533810326249	1026.292817158022	0
1895	4153.299935896055	1028.262975905015	0
1896	4153.300499989044	1028.263015573004	0
1897	4154.264301314554	1027.932273179145	0
1898	4153.302268355014	1028.262886165874	0
1899	4154.287905969351	1027.935431243404	0
1900	4154.287600750769	1027.935365679299	0
1901	4163.720664730075	1029.390834434445	0
1902	4163.70929983615	1029.379046895443	0
1903	4163.735172372309	1029.400192480033	0
1904	4163.726201328207	1029.394122354377	0
1905	4198.764246992366	1037.278773474607	0
1906	4198.732924501718	1037.273544616806	0
1907	4198.770839126476	1037.281478015954	0
1908	4198.764254524373	1037.278765085538	0
1909	4199.985858025461	1037.344649709314	0
1910	4199.982723038534	1037.344462639707	0
1911	4201.001110390655	1037.503729330521	0
1912	4199.983110698252	1037.344513097338	0
1913	4201.003313789019	1037.504172314091	0
1914	4201.000800160073	1037.503694037034	0
1915	4223.39801801716	1038.164254412446	0
1916	4223.397434965108	1038.16426213804	0
1917	4224.405280773219	1038.202208728001	0
1918	4223.397857080506	1038.164268313692	0
1919	4224.407186384395	1038.20222338089	0
1920	4224.407176739694	1038.202221820128	0
1921	4267.069915192264	1032.656342661227	0
1922	4267.039199438962	1032.654194481296	0
1923	4267.102659597911	1032.658270567468	0
1924	4267.076240404598	1032.656307766749	0
1925	4273.526401080886	1032.697598777001	0
1926	4273.524831349105	1032.697622882723	0
1927	4274.533794044924	1032.585968174533	0
1928	4273.525718249119	1032.697588381826	0
1929	4274.533641133878	1032.585975920445	0
1930	4274.533873189639	1032.585969123499	0
1931	4279.607596177354	1032.380467726894	0
1932	4279.6076339284	1032.380452467558	0
1933	4280.621699418047	1032.367117594392	0
1934	4279.608508117797	1032.380472473382	0
1935	4280.621849578138	1032.367161450578	0
1936	4280.621804485007	1032.367161986423	0
1937	4284.638709943416	1031.858267422632	0
1938	4284.638616078944	1031.858468621599	0
1939	4285.65090073297	1031.774873369968	0
1940	4284.63851877969	1031.858342236711	0
1941	4285.651979599426	1031.774660919203	0
1942	4285.651643380855	1031.774635131525	0
1943	4289.676071233762	1031.189676455304	0
1944	4289.676071232808	1031.189676455606	0
1945	4290.643251147365	1030.885683298371	0
1946	4289.675982626944	1031.189670517929	0
1947	4290.643212280865	1030.885692586871	0
1948	4290.643496730269	1030.885641775537	0
1949	4313.391307216906	1025.762039024369	0
1950	4313.391394434115	1025.762037380985	0
1951	4314.362383242737	1025.477402571452	0
1952	4313.391463174202	1025.762009041823	0
1953	4314.362839347729	1025.477453518397	0
1954	4313.391644706056	1025.76199033989	0
1955	4314.363295471607	1025.477659088361	0
1956	4314.363333838298	1025.477648677418	0
1957	4315.338559337175	1025.199064258603	0
1958	4314.364015670537	1025.477820007126	0
1959	4315.338834655874	1025.198929011671	0
1960	4315.338834656858	1025.198929011497	0
1961	4330.040207440889	1021.223775038848	0
1962	4330.040247810672	1021.223757126734	0
1963	4331.016130472618	1020.931549953949	0
1964	4330.040021535257	1021.223823835837	0
1965	4331.015518157357	1020.931774804866	0
1966	4331.015654618473	1020.931775726084	0
1967	4342.724178738124	1017.416894321157	0
1968	4342.724703665946	1017.416698430958	0
1969	4343.714304639591	1017.189157597371	0
1970	4342.724322913901	1017.416789886203	0
1971	4343.715286037681	1017.188945582034	0
1972	4343.715692082939	1017.188839952662	0
1973	4355.694179264043	1014.610800954418	0
1974	4355.693614945876	1014.610846921805	0
1975	4356.680628477136	1014.363686006438	0
1976	4355.693351353004	1014.61092979986	0
1977	4356.680436466564	1014.363784661886	0
1978	4356.680848804555	1014.363651128449	0
1979	4392.691404842003	1008.429181275594	0
1980	4392.671650108457	1008.426869349581	0
1981	4393.773099179642	1008.778134062296	0
1982	4392.689255295954	1008.428947136869	0
1983	4393.980179160498	1008.72084692035	0
1984	4393.97718577443	1008.72073732599	0
1985	4394.308409268523	1008.634513816021	0
1986	4394.314870703976	1008.634735726058	0
1987	4396.028649148318	1008.542519692379	0
1988	4396.022725950281	1008.541613748844	0
1989	4397.19228006603	1008.723299272263	0
1990	4396.015005221219	1008.542582591887	0
1991	4397.215840351241	1008.726489930893	0
1992	4397.197406789936	1008.724355464593	0
1993	4398.586644431856	1008.964578036662	0
1994	4398.58108158446	1008.964543792025	0
1995	4398.638252215488	1008.969855133368	0
1996	4398.591180288549	1008.965202411676	0
1997	4413.124169877751	1009.459285449244	0
1998	4413.121372385557	1009.459160076628	0
1999	4414.119316567445	1009.292152808439	0
2000	4413.123024990907	1009.459237859072	0
2001	4414.12189380679	1009.292620368894	0
2002	4414.122059649995	1009.292629349791	0
2003	4425.416809519566	1010.41532580243	0
2004	4425.416423396455	1010.415330795737	0
2005	4426.401208163934	1010.671995929326	0
2006	4425.417369637234	1010.415343347834	0
2007	4426.401248206504	1010.672006396918	0
2008	4426.401271847292	1010.672013224428	0
2009	4432.479460638648	1011.579054544082	0
2010	4432.4792114699	1011.579036773462	0
2011	4433.479955079664	1011.710596841446	0
2012	4432.479964586609	1011.579081157506	0
2013	4433.481045252965	1011.710567031552	0
2014	4433.481253508625	1011.710569575405	0
2015	4458.483144024418	1016.083590774891	0
2016	4458.483197428319	1016.083604426163	0
2017	4459.493165464067	1016.097866727227	0
2018	4458.483111317384	1016.083739590471	0
2019	4459.493352601347	1016.097972324472	0
2020	4459.493914553305	1016.097945210128	0
2021	4461.513331112372	1016.311268659908	0
2022	4461.513151469867	1016.311247771563	0
2023	4462.519015352957	1016.421070142173	0
2024	4461.513231470492	1016.311278562368	0
2025	4462.518825877456	1016.421080607399	0
2026	4462.51881518567	1016.421070961142	0
2027	4464.5283778804	1016.708787235837	0
2028	4464.528377881394	1016.708787235938	0
2029	4465.539695878085	1016.745014707463	0
2030	4464.526300842415	1016.709163573702	0
2031	4465.53989549239	1016.745032956483	0
2032	4465.539791747522	1016.745020469348	0
2033	4470.598066940938	1016.893244525028	0
2034	4470.597976885401	1016.893238266317	0
2035	4471.606516608535	1016.826940360875	0
2036	4470.598118975258	1016.893426232117	0
2037	4471.606573262839	1016.827014041831	0
2038	4471.606590664416	1016.826992933698	0
2039	4483.732980687464	1015.699631412727	0
2040	4483.733550474569	1015.699631154203	0
2041	4485.700306620499	1015.173384727478	0
2042	4483.733384562189	1015.699648944714	0
2043	4485.700126812615	1015.173352636376	0
2044	4485.700306619502	1015.173384727406	0
2045	4507.962833669144	1013.38782157295	0
2046	4507.964212870306	1013.38801388916	0
2047	4508.967277343862	1013.236545523026	0
2048	4507.962716100606	1013.387786683607	0
2049	4508.966089366201	1013.235983346515	0
2050	4508.967114177633	1013.236514420255	0
2051	4511.00430306153	1013.173317582209	0
2052	4511.004244627032	1013.173307208446	0
2053	4512.022284634035	1013.19881435303	0
2054	4511.003801259123	1013.173165449466	0
2055	4512.022009635444	1013.198716727605	0
2056	4512.021730608897	1013.198597958318	0
2057	4514.059247958906	1013.401970527423	0
2058	4514.059521519815	1013.402021174894	0
2059	4515.069125244159	1013.363564885264	0
2060	4514.058879000203	1013.401818176244	0
2061	4515.068158704885	1013.363203002126	0
2062	4515.068963318602	1013.363548988375	0
2063	4525.175275135726	1015.02216815071	0
2064	4525.175286560003	1015.022110663619	0
2065	4525.992531634559	1015.586785781333	0
2066	4525.174510959084	1015.022023544764	0
2067	4526.001049028194	1015.58852473609	0
2068	4525.995808908849	1015.587712151638	0
2069	4533.324685674905	1016.510761031322	0
2070	4533.324685674003	1016.510761030889	0
2071	4533.457196768381	1016.542209745952	0
2072	4533.404792985951	1016.531489789435	0
2073	4538.21508900062	1018.293588274176	0
2074	4538.214245924547	1018.293380004638	0
2075	4539.147871651963	1018.743146817418	0
2076	4538.216849927237	1018.29389509731	0
2077	4539.148328874398	1018.743249697421	0
2078	4539.147269622738	1018.742952711848	0
2079	4540.009154994977	1019.302729334159	0
2080	4540.008187871937	1019.302763335158	0
2081	4540.958981807932	1019.699685868486	0
2082	4540.009211052881	1019.302742106978	0
2083	4540.963919733782	1019.700827192842	0
2084	4540.964245823268	1019.700866260256	0
2085	4552.958757421808	1022.253983406172	0
2086	4552.958369100785	1022.253848708914	0
2087	4553.90804109057	1022.620081409899	0
2088	4552.963585566455	1022.254428862339	0
2089	4553.90953908835	1022.620192909334	0
2090	4553.90920077807	1022.620184494261	0
2091	4556.861591024864	1023.368476950386	0
2092	4556.861601279034	1023.368477017934	0
2093	4557.821651235244	1023.694539785435	0
2094	4556.862316757406	1023.368604673094	0
2095	4557.823699925088	1023.6948997258	0
2096	4557.8236403783	1023.694891966238	0
2097	4560.776871945199	1024.493823146263	0
2098	4560.776359468649	1024.493735331585	0
2099	4561.761153565541	1024.758937796949	0
2100	4560.776870778646	1024.493816206632	0
2101	4561.765561713042	1024.756539348371	0
2102	4561.761354441454	1024.758989334139	0
2103	4562.711361955562	1025.109520708148	0
2104	4561.765621014795	1024.75655807204	0
2105	4562.712922664782	1025.109615877095	0
2106	4562.713164489844	1025.109714921424	0
2107	4563.715945581489	1025.294415880837	0
2108	4563.715572378363	1025.294400961474	0
2109	4564.712245457345	1025.508477874065	0
2110	4563.721676602734	1025.295873308617	0
2111	4564.712666244704	1025.508639842106	0
2112	4564.712103304167	1025.508477250105	0
2113	4585.88811562032	1028.280914090439	0
2114	4585.887967802636	1028.280980995943	0
2115	4586.898103604068	1028.347862509232	0
2116	4585.888266840088	1028.280922580491	0
2117	4586.898900489839	1028.347676856909	0
2118	4586.898128457697	1028.347601363422	0
2119	4593.002101387905	1028.269953135096	0
2120	4593.002212094093	1028.269951250556	0
2121	4594.011843098069	1028.18160321787	0
2122	4593.003584304301	1028.270026378878	0
2123	4594.012679953349	1028.181718700763	0
2124	4594.012636305553	1028.181673504418	0
2125	4610.206619617746	1026.70433732233	0
2126	4610.206290455004	1026.704363310207	0
2127	4611.207730446189	1026.566146317438	0
2128	4610.206973296655	1026.704362553057	0
2129	4611.207985740245	1026.566162366268	0
2130	4611.207744060251	1026.566178038961	0
2131	4616.238498610454	1025.944342719979	0
2132	4616.237836189922	1025.944539808437	0
2133	4617.225844756799	1025.721736432712	0
2134	4616.238447850116	1025.944344831791	0
2135	4617.228226297294	1025.722619605958	0
2136	4617.227045573886	1025.721952585702	0
2137	4618.224815414531	1025.54211700946	0
2138	4617.228481071123	1025.722583660875	0
2139	4618.224995684081	1025.542219747255	0
2140	4618.22491425764	1025.542104262633	0
2141	4621.192446064931	1024.872520403101	0
2142	4621.192341131891	1024.872435341304	0
2143	4623.147035177041	1024.37199076818	0
2144	4621.192495716055	1024.872539401286	0
2145	4623.14697929556	1024.372067061283	0
2146	4623.147044439029	1024.371976101227	0
2147	4645.01240646699	1019.755259918711	0
2148	4645.011566120718	1019.755212592475	0
2149	4645.980031367237	1019.467644286381	0
2150	4645.012254624861	1019.75530001364	0
2151	4645.980485094553	1019.467583817842	0
2152	4645.98030047784	1019.467626338993	0
2153	4649.87669297813	1018.30233833475	0
2154	4649.875882697398	1018.302352146661	0
2155	4650.835370450768	1017.967599638101	0
2156	4649.876807858092	1018.302335290063	0
2157	4650.836555584922	1017.968428116118	0
2158	4650.835117413428	1017.967354450675	0
2159	4651.776752842114	1017.58524278791	0
2160	4650.835371056105	1017.967591082504	0
2161	4651.776445513877	1017.585408086864	0
2162	4651.776747835619	1017.585241090719	0
2163	4656.656020973278	1016.195515780683	0
2164	4656.655879905363	1016.195518060667	0
2165	4657.614708634584	1015.870013076509	0
2166	4656.655870004874	1016.195531076705	0
2167	4657.615307243041	1015.869996441034	0
2168	4657.614896525692	1015.869999537564	0
2169	4658.599443278676	1015.615918385275	0
2170	4658.59949867792	1015.615913660353	0
2171	4659.571085161678	1015.32462149257	0
2172	4658.599598013124	1015.615926966806	0
2173	4659.571288262869	1015.324612679875	0
2174	4659.571030451524	1015.324671642986	0
2175	4680.552258868049	1011.678558729468	0
2176	4680.552310334806	1011.678553998496	0
2177	4681.546775133248	1011.468030683213	0
2178	4680.552264306283	1011.678575422633	0
2179	4681.547056798653	1011.468068417769	0
2180	4681.546655463009	1011.468041311581	0
2181	4685.530017794984	1010.678979610722	0
2182	4685.52977156194	1010.679000544603	0
2183	4686.506115615287	1010.407110359932	0
2184	4685.529879512595	1010.679007867179	0
2185	4686.507574471173	1010.407317970685	0
2186	4686.506157188721	1010.407112971834	0
2187	4687.494429107413	1010.18400309394	0
2188	4686.508089233375	1010.407252063082	0
2189	4687.499273750428	1010.200232969318	0
2190	4687.49764054682	1010.194802625052	0
2191	4688.505211813158	1010.075924564787	0
2192	4687.499297878747	1010.200216900073	0
2193	4688.510153265088	1010.076633540828	0
2194	4688.505830025278	1010.075882946409	0
2195	4689.522432023505	1010.023328406451	0
2196	4688.510255746898	1010.076619436884	0
2197	4689.52267289368	1010.02314893111	0
2198	4689.522709237845	1010.023172258737	0
2199	4703.739628883722	1009.512277029797	0
2200	4703.739608874832	1009.512289364091	0
2201	4704.751771616391	1009.533711549996	0
2202	4703.741308854536	1009.510225617841	0
2203	4704.751860955126	1009.533643177028	0
2204	4704.751924031897	1009.533655497772	0
2205	4707.801313093793	1009.511437875326	0
2206	4707.80116332413	1009.511435500112	0
2207	4708.793353140612	1009.735514452286	0
2208	4707.801397504113	1009.510978650983	0
2209	4708.793587545626	1009.735449418448	0
2210	4708.793458124446	1009.735440677042	0
2211	4715.844417135303	1010.723239725712	0
2212	4715.844417136126	1010.723239725144	0
2213	4716.83989920865	1010.901861594657	0
2214	4715.844345029575	1010.723234761486	0
2215	4716.839806299462	1010.901849881232	0
2216	4716.839729853303	1010.901841394422	0
2217	4725.799824447686	1012.715138298512	0
2218	4725.79956336753	1012.715121934373	0
2219	4726.759780139927	1013.032231824154	0
2220	4725.799706848845	1012.715131822104	0
2221	4726.759858900264	1013.032236935666	0
2222	4726.759780140922	1013.03223182406	0
2223	4731.715564673812	1014.097120517607	0
2224	4731.714973950045	1014.097134810511	0
2225	4732.672894180751	1014.438691303667	0
2226	4731.714916013034	1014.097151260238	0
2227	4732.67278361533	1014.438609174079	0
2228	4731.715558645077	1014.097126818085	0
2229	4733.685327151202	1014.58141023923	0
2230	4732.673008835892	1014.438654176015	0
2231	4733.684960327655	1014.581366123133	0
2232	4733.685075045293	1014.581400838488	0
2233	4738.612574382808	1015.780836956389	0
2234	4738.612444291835	1015.780819788179	0
2235	4739.563122091807	1016.12592273226	0
2236	4738.615464352468	1015.780833094116	0
2237	4739.565902293789	1016.126311166409	0
2238	4739.56588106003	1016.126300307095	0
2239	4753.209773212476	1020.011073918187	0
2240	4753.209773211995	1020.011073919063	0
2241	4754.159231133542	1020.354788167721	0
2242	4753.209908849317	1020.011048484468	0
2243	4754.15947759971	1020.354710380039	0
2244	4754.159168503565	1020.354774257838	0
2245	4768.329593143796	1025.949501438187	0
2246	4768.329828523161	1025.949569916992	0
2247	4769.229094685356	1026.433363592039	0
2248	4768.33020571656	1025.949686746359	0
2249	4769.229827673486	1026.433707850703	0
2250	4769.229519865327	1026.433590109444	0
2251	4770.705168276393	1027.805863640057	0
2252	4770.693883656557	1027.80680727048	0
2253	4771.67657730555	1028.210250721356	0
2254	4770.704257711434	1027.805548148462	0
2255	4771.678523203795	1028.210874944314	0
2256	4771.677117914795	1028.210365304721	0
2257	4775.695770974313	1029.6157451607	0
2258	4775.695358693991	1029.615794122637	0
2259	4775.735016430913	1029.625178220597	0
2260	4775.710883691695	1029.619262372864	0
2261	4778.930035762344	1029.862811693915	0
2262	4778.928317435754	1029.862501726368	0
2263	4779.930168153686	1030.037000624588	0
2264	4778.930788986962	1029.862903955284	0
2265	4779.931313241309	1030.037181684624	0
2266	4779.930854966116	1030.037084785974	0
2267	4780.93127687233	1030.223083591879	0
2268	4780.931235486713	1030.223064542269	0
2269	4782.947778544529	1030.450506702046	0
2270	4780.931707405331	1030.223114458114	0
2271	4782.948064587126	1030.450546225913	0
2272	4782.948053592521	1030.450541195505	0
2273	4789.019868390184	1031.189512310242	0
2274	4789.019949377929	1031.189533172732	0
2275	4790.026547565355	1031.319739913026	0
2276	4789.0206732416	1031.189638601097	0
2277	4790.026964363452	1031.319779407558	0
2278	4790.02690869055	1031.319768385752	0
2279	4796.091812129809	1031.838330206009	0
2280	4796.090349151056	1031.838393721112	0
2281	4797.099139795917	1031.931643060609	0
2282	4796.092072606109	1031.838352225803	0
2283	4797.100025120344	1031.93134253478	0
2284	4797.099927953366	1031.931328346569	0
2285	4813.318817855175	1031.258247344608	0
2286	4813.318740966783	1031.258247509992	0
2287	4814.325265835583	1031.164378127786	0
2288	4813.3190657519	1031.258279667934	0
2289	4814.325965294256	1031.164397592364	0
2290	4814.32570407602	1031.164408943375	0
2291	4836.461664297504	1028.162923146056	0
2292	4836.463047404885	1028.162388457179	0
2293	4837.479635808438	1028.148622878208	0
2294	4836.461788074686	1028.16287254852	0
2295	4837.479847331454	1028.1487013232	0
2296	4837.479904074338	1028.148687514155	0
2297	4840.516574979579	1028.185290118863	0
2298	4840.516650875113	1028.185281010687	0
2299	4841.528533300174	1028.210678642809	0
2300	4840.516692824183	1028.185300656125	0
2301	4841.528265682421	1028.210700937316	0
2302	4841.528533031621	1028.210682236097	0
2303	4844.54859946834	1028.573318834667	0
2304	4844.549863242152	1028.572722307067	0
2305	4845.560515248858	1028.667214333425	0
2306	4844.548873353054	1028.5733306981	0
2307	4845.560531546238	1028.667254061073	0
2308	4845.560501545738	1028.6672502488	0
2309	4854.524879163454	1030.241919995036	0
2310	4854.524943710204	1030.241910596044	0
2311	4855.509795504995	1030.484987133895	0
2312	4854.525090429608	1030.241927953838	0
2313	4855.51147453432	1030.484437249241	0
2314	4855.510173583274	1030.484936213686	0
2315	4856.482232163578	1030.744267865402	0
2316	4855.51134702883	1030.484413667366	0
2317	4856.48346390608	1030.744045231287	0
2318	4856.482287368121	1030.744264216749	0
2319	4892.231608576515	1038.073064260935	0
2320	4892.231573232875	1038.073083361509	0
2321	4893.230833437347	1038.24347840312	0
2322	4892.231702307523	1038.072803010696	0
2323	4893.231087351105	1038.243453999438	0
2324	4893.231076781504	1038.243457136303	0
2325	4895.23344612082	1038.569436827878	0
2326	4895.23320680445	1038.569462697314	0
2327	4896.241962358845	1038.652821932409	0
2328	4895.233667479034	1038.569640929735	0
2329	4896.242141749079	1038.653069133241	0
2330	4896.24159122916	1038.652807863811	0
2331	4903.321018227492	1038.711716659067	0
2332	4903.321163586561	1038.711719288145	0
2333	4904.33562248041	1038.67231858659	0
2334	4903.320923898415	1038.711731239475	0
2335	4904.335643324899	1038.672411173689	0
2336	4904.33562832655	1038.67231813889	0
2337	4905.339186913807	1038.569067223629	0
2338	4904.336241350364	1038.672407053912	0
2339	4905.339585240136	1038.569054728655	0
2340	4905.339639792582	1038.569049753163	0
2341	4924.459670104623	1036.438040823827	0
2342	4924.459701236466	1036.438031746191	0
2343	4925.451822467874	1036.262035355016	0
2344	4924.459821128306	1036.438062697802	0
2345	4925.452080663841	1036.262101144537	0
2346	4925.451766577505	1036.262038519527	0
2347	4928.456808474531	1035.784296563889	0
2348	4928.456521952613	1035.784298616295	0
2349	4929.435435137931	1035.552603589873	0
2350	4928.45686677817	1035.784283673737	0
2351	4929.436100087045	1035.552599947615	0
2352	4929.43611842273	1035.552582881555	0
2353	4940.473188124692	1033.89575385811	0
2354	4940.472841573746	1033.895434506398	0
2355	4941.47740481138	1033.767829730432	0
2356	4940.473297000507	1033.89573753	0
2357	4941.477502993935	1033.767887806931	0
2358	4941.477326301056	1033.767829824227	0
2359	4945.524064347733	1033.543078210029	0
2360	4945.524162587655	1033.54300020953	0
2361	4946.53708836922	1033.568423758688	0
2362	4945.524115850872	1033.543081996008	0
2363	4946.536386044904	1033.568600876773	0
2364	4946.536487851981	1033.568611110645	0
2365	4948.548665178638	1033.785171710003	0
2366	4948.549066194395	1033.785062339324	0
2367	4949.550745647402	1033.915317269249	0
2368	4948.54860959058	1033.785171300056	0
2369	4949.550720067979	1033.915310062612	0
2370	4949.550571323364	1033.915314117289	0
2371	4967.574840831356	1036.474722208337	0
2372	4967.575255381389	1036.474738803885	0
2373	4968.574049977992	1036.665112847141	0
2374	4967.575463070179	1036.474808761139	0
2375	4968.574157786581	1036.665105662785	0
2376	4968.574099603771	1036.66512309256	0
2377	4971.549360831893	1037.257860340493	0
2378	4971.549218475819	1037.257865143237	0
2379	4972.543948347039	1037.454555397569	0
2380	4971.549653988956	1037.257908254889	0
2381	4972.544385578088	1037.454583023778	0
2382	4972.544135020922	1037.454577408875	0
2383	4979.502981764663	1038.867612087999	0
2384	4979.502890710959	1038.867623893766	0
2385	4980.501441277504	1039.021305563495	0
2386	4979.503236664924	1038.867612577416	0
2387	4980.501744223573	1039.021292081198	0
2388	4980.501568143947	1039.021319523868	0
2389	4990.591262659708	1040.134189376866	0
2390	4990.590591959408	1040.134126869256	0
2391	4991.603403797068	1040.156085948356	0
2392	4990.591146321046	1040.134197271694	0
2393	4991.604520842571	1040.156814803597	0
2394	4991.603416727254	1040.156085527587	0
2395	5005.715376504497	1038.891174379004	0
2396	5005.715128657569	1038.891227567844	0
2397	5006.717797835455	1038.77842816051	0
2398	5005.715211484789	1038.891195083587	0
2399	5006.717855552515	1038.778424338028	0
2400	5006.71785016494	1038.778424141859	0
2401	5010.746854163111	1038.364023223601	0
2402	5010.74694004535	1038.363997724107	0
2403	5011.755136517718	1038.265805533057	0
2404	5010.748757249919	1038.363850824501	0
2405	5011.755888517499	1038.264864457496	0
2406	5010.747385836275	1038.36397342759	0
2407	5011.755913886851	1038.267312006471	0
2408	5011.755934867276	1038.264880411888	0
2409	5012.767407634224	1038.218742650093	0
2410	5011.755153209122	1038.26581342075	0
2411	5012.771541622879	1038.217409801615	0
2412	5012.767557561588	1038.218844830966	0
2413	5013.77319219203	1038.349080353792	0
2414	5012.771890541301	1038.217345098412	0
2415	5013.774192922622	1038.348964722285	0
2416	5013.773078713679	1038.349076777807	0
2417	5014.783287447819	1038.448912287725	0
2418	5014.783639512731	1038.448944532549	0
2419	5015.789906637904	1038.57358145541	0
2420	5014.783637198342	1038.448895665626	0
2421	5015.790344221323	1038.573532769431	0
2422	5015.79031155596	1038.573561283694	0
2423	5019.83976330927	1038.808619680554	0
2424	5019.839924574116	1038.808593125618	0
2425	5020.850096963265	1038.928475022883	0
2426	5019.839861506842	1038.80862317594	0
2427	5020.849390654081	1038.928781641375	0
2428	5020.849357033484	1038.928777752135	0
2429	5021.850624573873	1039.108665099078	0
2430	5020.849960991181	1038.92849336435	0
2431	5021.852403105108	1039.108298530274	0
2432	5021.851556133121	1039.108394770019	0
2433	5023.892394928078	1039.098480687753	0
2434	5021.852361409064	1039.108315015193	0
2435	5023.892215588381	1039.098536941689	0
2436	5023.892128723096	1039.098497698698	0
2437	5025.926776340317	1039.028180109359	0
2438	5025.927488911163	1039.028101862149	0
2439	5026.945075995512	1039.062512144443	0
2440	5025.926760403117	1039.028162776643	0
2441	5026.945271574987	1039.062481892563	0
2442	5026.945290893649	1039.062496791197	0
2443	5027.972321670632	1039.082827923048	0
2444	5026.946106278138	1039.062521496465	0
2445	5027.969253493596	1039.082977123404	0
2446	5027.971827790841	1039.082883904325	0
2447	5030.032941960807	1038.950310135319	0
2448	5027.972401115221	1039.082856284792	0
2449	5030.039604400958	1038.953500066464	0
2450	5030.033431229766	1038.95021192298	0
2451	5031.068400673426	1038.795041008275	0
2452	5030.035011523702	1038.95125679124	0
2453	5031.068637550194	1038.795166833109	0
2454	5031.068274767335	1038.795059492417	0
2455	5032.133066734017	1038.760703482002	0
2456	5032.133321945749	1038.760690259978	0
2457	5033.207532189992	1038.684069718025	0
2458	5032.137852859025	1038.759695279585	0
2459	5033.209658568736	1038.683327116628	0
2460	5033.209494873689	1038.684222933852	0
2461	5035.825642810915	1039.235246233434	0
2462	5035.828561327636	1039.234871283454	0
2463	5035.436763493937	1040.351052799323	0
2464	5035.721406817288	1039.233327737829	0
2465	5035.435852823226	1040.352563526983	0
2466	5035.435682868369	1040.352803176731	0
2467	5036.391796895114	1039.280435205223	0
2468	5035.968777936937	1039.24441559093	0
2469	5037.231516160869	1038.48796195974	0
2470	5036.391683913267	1039.280259606768	0
2471	5037.256411041166	1038.482040162597	0
2472	5037.23224352431	1038.487923905107	0
2473	5038.076226976681	1037.852847288763	0
2474	5038.077487981796	1037.852290204956	0
2475	5039.128423361928	1037.546265381251	0
2476	5038.083689198977	1037.850544089329	0
2477	5039.132036223713	1037.545162123698	0
2478	5039.129157954943	1037.546067866247	0
2479	5050.292479077352	1035.454949080632	0
2480	5050.292536310159	1035.454943392846	0
2481	5053.252422113066	1034.629619578793	0
2482	5050.292822764887	1035.45492288467	0
2483	5053.252894687984	1034.629538245404	0
2484	5053.252332329162	1034.629672934624	0
2485	5061.210307458253	1032.857441114424	0
2486	5061.209566522075	1032.857474056431	0
2487	5062.190213170638	1032.577805825293	0
2488	5061.210261015694	1032.857434444	0
2489	5062.190677042753	1032.577752158546	0
2490	5062.190142607051	1032.577824702876	0
2491	5068.101871600465	1031.031952066015	0
2492	5068.101799895067	1031.031965424916	0
2493	5069.059975486045	1030.683744433708	0
2494	5068.104774237171	1031.031559002611	0
2495	5069.06092778132	1030.683523779817	0
2496	5069.060143449507	1030.683672572927	0
2497	5073.969744216662	1029.372362870247	0
2498	5073.969647145886	1029.372347122342	0
2499	5074.94609663982	1029.111466123297	0
2500	5073.969807930213	1029.372328071777	0
2501	5074.944724279515	1029.111655390372	0
2502	5074.945422512746	1029.111504226627	0
2503	5076.926004642744	1028.633799171757	0
2504	5074.946162802545	1029.111429521744	0
2505	5076.927159301546	1028.633667163502	0
2506	5076.926023355876	1028.633861784449	0
2507	5082.899734301449	1027.435074272208	0
2508	5082.900234722581	1027.435035351965	0
2509	5083.876388498136	1027.158298209157	0
2510	5082.899954783968	1027.435019025783	0
2511	5083.876712886586	1027.158272105025	0
2512	5083.876625213976	1027.158270305749	0
2513	5093.806074359043	1025.07127344435	0
2514	5093.806357083467	1025.071226794851	0
2515	5095.749242916343	1024.504032950647	0
2516	5093.806552705631	1025.070762143365	0
2517	5095.750422596524	1024.507199385568	0
2518	5095.74852497665	1024.503075916361	0
2519	5096.75244693532	1024.318862471461	0
2520	5095.74924291702	1024.504032951383	0
2521	5096.75285412769	1024.319017408531	0
2522	5095.749915941379	1024.505435459366	0
2523	5096.752662828514	1024.319009966636	0
2524	5096.752540899026	1024.319022808407	0
2525	5108.872555318647	1023.013932091002	0
2526	5108.87227733557	1023.01388282385	0
2527	5109.882604692275	1022.91091015594	0
2528	5108.87433682054	1023.013598646916	0
2529	5109.882559503902	1022.910881091786	0
2530	5109.88242606686	1022.910947995966	0
2531	5138.31833525494	1022.358399403861	0
2532	5138.318161399121	1022.358432261073	0
2533	5139.322331877222	1022.430124392353	0
2534	5138.318540569674	1022.35839384818	0
2535	5139.322639014847	1022.430092617962	0
2536	5139.322533337803	1022.430130020366	0
2537	5142.372021028381	1022.575500963249	0
2538	5142.371102150683	1022.575829716609	0
2539	5143.383670377153	1022.663398571956	0
2540	5142.371463839117	1022.575393575211	0
2541	5143.384576569739	1022.663204408746	0
2542	5143.383671409145	1022.663381404331	0
2543	5145.416609528831	1022.753548382982	0
2544	5145.416601641182	1022.753639609354	0
2545	5146.417776900588	1022.89703339404	0
2546	5145.416662880556	1022.753529472755	0
2547	5146.417992663923	1022.896924048475	0
2548	5146.417980212052	1022.897046554446	0
2549	5154.48260058825	1023.835297960946	0
2550	5154.482610032615	1023.835284458646	0
2551	5155.500712647375	1023.931367984281	0
2552	5154.482955175728	1023.835348665546	0
2553	5155.500308530242	1023.93032118554	0
2554	5155.500157062887	1023.931068730176	0
2555	5156.472211128824	1024.222404646287	0
2556	5155.500712646625	1023.93136798362	0
2557	5156.472758536351	1024.222618711811	0
2558	5156.472190393599	1024.222402098279	0
2559	5163.792848672708	1024.945961965077	0
2560	5163.765241405121	1024.932193696778	0
2561	5163.811216206178	1024.953058384102	0
2562	5163.814217863931	1024.954688979998	0
2563	5164.786768981119	1025.626968146177	0
2564	5164.783018490588	1025.62495400311	0
2565	5165.784587114255	1025.877461773686	0
2566	5164.786803785718	1025.626975683471	0
2567	5165.787321653562	1025.878335908094	0
2568	5165.786561486862	1025.877983058233	0
2569	5166.750119238196	1026.221100629817	0
2570	5166.749984982102	1026.221034831786	0
2571	5167.727361118407	1026.514321302869	0
2572	5166.751449916145	1026.221256798015	0
2573	5167.728390092523	1026.514545849409	0
2574	5167.727962083622	1026.514490223252	0
2575	5168.676471211743	1026.876938455557	0
2576	5167.728554874216	1026.514608018167	0
2577	5168.676104503244	1026.876813112339	0
2578	5168.676285906869	1026.876898601202	0
2579	5175.641654321796	1028.299480803454	0
2580	5175.640578815059	1028.299359118464	0
2581	5176.61613105225	1028.569652008348	0
2582	5175.641621535972	1028.299474571638	0
2583	5176.621619741472	1028.567821739935	0
2584	5176.615868716727	1028.569647664148	0
2585	5177.584121113146	1028.858062023725	0
2586	5176.621650808579	1028.567827108546	0
2587	5177.58480362193	1028.858106738207	0
2588	5177.584664071998	1028.858079921559	0
2589	5183.538260137415	1030.094773094756	0
2590	5183.538318447692	1030.094779915339	0
2591	5184.523354386401	1030.331250693381	0
2592	5183.538502350007	1030.094778898192	0
2593	5184.523792322443	1030.33128472191	0
2594	5184.523416158097	1030.331236579081	0
2595	5185.491787586196	1030.615785042763	0
2596	5184.525545956882	1030.332078774282	0
2597	5185.489560789131	1030.614628773527	0
2598	5185.491786725435	1030.615816509574	0
2599	5186.470312766591	1030.860342190987	0
2600	5185.491757983345	1030.615761418348	0
2601	5186.47069802276	1030.860353659706	0
2602	5186.470714439257	1030.860361103781	0
2603	5197.479176922822	1032.706668150056	0
2604	5197.479428402256	1032.706631540566	0
2605	5198.429943619806	1033.060481906073	0
2606	5197.480008780562	1032.706676092958	0
2607	5198.4299005793	1033.060503073575	0
2608	5198.430015010567	1033.060506973666	0
2609	5200.419918520203	1033.441857789206	0
2610	5200.419928754622	1033.441870833477	0
2611	5201.418090336372	1033.606378380685	0
2612	5200.420025808208	1033.441881646963	0
2613	5201.418224253808	1033.606384612488	0
2614	5201.418307535067	1033.606388479006	0
2615	5223.459384453336	1036.733107044975	0
2616	5223.459384454314	1036.733107045187	0
2617	5224.442440887833	1036.979247604576	0
2618	5223.459889236565	1036.733173180311	0
2619	5224.442998428582	1036.979326111872	0
2620	5224.442751909638	1036.979236519175	0
2621	5249.759688203658	1037.665976520572	0
2622	5249.759410828435	1037.665983865141	0
2623	5250.763610282107	1037.781606132472	0
2624	5249.759873679011	1037.665985584885	0
2625	5250.764040021817	1037.781646874661	0
2626	5250.763999895596	1037.781646948053	0
2627	5252.756701304632	1038.155659131776	0
2628	5252.756376110349	1038.155648255405	0
2629	5253.752543792465	1038.336218628891	0
2630	5252.756747475897	1038.155660824412	0
2631	5253.753681495499	1038.336142215505	0
2632	5253.753397099625	1038.336105719782	0
2633	5272.598558080426	1042.369683655746	0
2634	5272.598560110599	1042.369795236232	0
2635	5273.591936023689	1042.587954677902	0
2636	5272.598611100829	1042.369744707762	0
2637	5273.591626906673	1042.587791518855	0
2638	5273.591596171904	1042.587918509919	0
2639	5275.549129876875	1043.137519518065	0
2640	5275.546703052469	1043.138027635851	0
2641	5276.515982237034	1043.441414770781	0
2642	5275.549153723228	1043.137536670397	0
2643	5276.525525476331	1043.438752913098	0
2644	5276.525992479814	1043.438780139427	0
2645	5302.88418363757	1045.458567813342	0
2646	5302.884256337168	1045.458545295489	0
2647	5303.902097277673	1045.416131276173	0
2648	5302.883687688557	1045.458701638152	0
2649	5303.903080272358	1045.416169858556	0
2650	5303.90177012121	1045.416135694977	0
2651	5309.977796099667	1045.689906835423	0
2652	5309.977216574695	1045.689975501167	0
2653	5312.012896325984	1045.755265748839	0
2654	5309.978347069259	1045.689950706571	0
2655	5312.013558800478	1045.755359206336	0
2656	5312.013601036233	1045.755326441558	0
2657	5317.076783974335	1046.187692994762	0
2658	5317.077149051087	1046.187934843274	0
2659	5318.088828012088	1046.096947014153	0
2660	5317.076820295949	1046.187697671425	0
2661	5318.090300188043	1046.094775372492	0
2662	5318.09029993143	1046.094782594994	0
2663	5322.169790861626	1045.944460268718	0
2664	5322.16973599828	1045.944091251124	0
2665	5323.172144841362	1045.818776188434	0
2666	5322.17002322388	1045.944449908411	0
2667	5323.17233349635	1045.818839939593	0
2668	5323.172580933545	1045.81871897633	0
2669	5342.227957830491	1042.30800805083	0
2670	5342.227803028473	1042.308039341255	0
2671	5342.976623860343	1041.631436963562	0
2672	5342.230127299465	1042.307623193636	0
2673	5342.977132979448	1041.631400912836	0
2674	5342.976740723038	1041.631450654731	0
2675	5383.685402091165	1036.011713377482	0
2676	5383.681401498953	1036.012224959713	0
2677	5384.632004491004	1035.658073407724	0
2678	5383.685653207754	1036.011677830395	0
2679	5384.634213034719	1035.657961072572	0
2680	5384.635113235554	1035.657827283173	0
2681	5390.73044637926	1034.652091975104	0
2682	5390.729775589979	1034.652091497289	0
2683	5392.766869780467	1034.266101675277	0
2684	5390.730446380253	1034.652091975226	0
2685	5392.767427182426	1034.266237371928	0
2686	5392.768255091162	1034.266075797102	0
2687	5405.165023996639	1032.401343208238	0
2688	5405.162854886166	1032.401665196413	0
2689	5406.145100557223	1032.023857809717	0
2690	5405.166714614387	1032.402208008977	0
2691	5406.146711501839	1032.024087433219	0
2692	5406.147873714168	1032.023861791947	0
2693	5416.561195662191	1029.360505204266	0
2694	5416.555367377861	1029.361753968319	0
2695	5417.293112083424	1028.735742467001	0
2696	5416.563396029716	1029.36041948785	0
2697	5417.607334688091	1028.806051642269	0
2698	5417.300630647317	1028.735916145932	0
2699	5418.54290536582	1028.66362654093	0
2700	5418.535268777612	1028.662306846864	0
2701	5419.054366742276	1028.763018980761	0
2702	5417.604699701872	1028.806752866767	0
2703	5419.115902544278	1028.79768811233	0
2704	5419.112653670764	1028.797614712975	0
2705	5422.024811631594	1029.089482172615	0
2706	5422.016486628298	1029.089092637239	0
2707	5422.231418788224	1029.083712943087	0
2708	5422.101228762481	1029.087709206967	0
2709	5434.807419115423	1029.778681441614	0
2710	5434.808492608888	1029.778792068431	0
2711	5435.825051138566	1030.093314663016	0
2712	5434.807282072955	1029.7784763527	0
2713	5435.828811204008	1030.092901115803	0
2714	5435.827565288193	1030.092878636334	0
2715	5446.333846005453	1030.72083567941	0
2716	5446.332042443207	1030.720810878877	0
2717	5447.34257983325	1030.947173721549	0
2718	5446.333311647635	1030.720858371713	0
2719	5447.345190339423	1030.947239511486	0
2720	5447.343164206437	1030.947198224407	0
2721	5448.365171296147	1031.144867446455	0
2722	5448.366126468831	1031.145165065298	0
2723	5449.343362980449	1031.478219433812	0
2724	5448.366561933884	1031.145050599805	0
2725	5449.347150200501	1031.478192007437	0
2726	5449.343641711302	1031.478220959585	0
2727	5453.428518618414	1032.219338416482	0
2728	5453.427757669667	1032.219296180998	0
2729	5454.456264552559	1032.378974046802	0
2730	5453.429829150356	1032.219297200028	0
2731	5454.457304040653	1032.379016006065	0
2732	5454.455850655781	1032.378925505904	0
2733	5455.477963195316	1032.526610074264	0
2734	5455.477280871491	1032.526626032523	0
2735	5457.529482977086	1032.824194029699	0
2736	5455.478036724451	1032.526650666643	0
2737	5457.530404567761	1032.824309068178	0
2738	5457.529872811465	1032.824230167923	0
2739	5472.941620092254	1033.902117770777	0
2740	5472.941638428419	1033.902141683195	0
2741	5473.968729669155	1033.8659162217	0
2742	5472.942207283577	1033.902181566708	0
2743	5473.969563579917	1033.865954117609	0
2744	5473.968757755668	1033.865947715834	0
2745	5474.992117947091	1033.821190511582	0
2746	5474.992247664736	1033.821228823809	0
2747	5475.996570980327	1033.610993690052	0
2748	5474.993042683534	1033.821344462691	0
2749	5475.997269521325	1033.610984350918	0
2750	5475.99760378133	1033.610975332345	0
2751	5495.845613248536	1032.552359785538	0
2752	5495.832159692969	1032.556220475384	0
2753	5495.902740879878	1032.540140721655	0
2754	5495.845525630314	1032.552316840745	0
2755	5499.473047318505	1029.945114981673	0
2756	5499.473067678463	1029.945114600088	0
2757	5501.45615927322	1029.436113034456	0
2758	5499.473384796406	1029.945769646913	0
2759	5501.458177926716	1029.435182424802	0
2760	5501.456220503913	1029.436130693158	0
2761	5504.337129410922	1028.396711279158	0
2762	5504.337474687393	1028.396864522018	0
2763	5505.329745562552	1028.19324484884	0
2764	5504.336683026864	1028.396642534462	0
2765	5505.329725303841	1028.192996258462	0
2766	5505.330447323286	1028.192979909679	0
2767	5524.500024620815	1025.079428167692	0
2768	5524.500063326459	1025.079429011352	0
2769	5525.517388168032	1025.204450609156	0
2770	5524.53012895574	1025.068933597055	0
2771	5525.520790728114	1025.203978177718	0
2772	5525.519870189719	1025.204138371089	0
2773	5528.521093349775	1025.595369787207	0
2774	5528.52043048341	1025.595218923869	0
2775	5529.530092217564	1025.680077446929	0
2776	5528.5219709272	1025.595297598515	0
2777	5529.530447933261	1025.68007340135	0
2778	5529.530346585144	1025.680085988711	0
2779	5548.746735485087	1027.14131165025	0
2780	5548.746767716387	1027.141307396846	0
2781	5549.690177987394	1027.51390162484	0
2782	5548.747361124681	1027.141213474546	0
2783	5549.692243827677	1027.513718276761	0
2784	5549.691995108516	1027.513665517406	0
2785	5608.936669542776	1035.701166156999	0
2786	5608.936036967129	1035.701176598851	0
2787	5609.936135669798	1035.895382550778	0
2788	5608.936398003703	1035.701160809864	0
2789	5609.93660950784	1035.895150888096	0
2790	5609.936151218143	1035.895366263176	0
2791	5615.962381389756	1036.548125344765	0
2792	5615.962391407797	1036.548163423876	0
2793	5616.969067487916	1036.676409296612	0
2794	5615.962360552082	1036.548129619463	0
2795	5616.969400295577	1036.676407697114	0
2796	5616.969386586264	1036.676403176894	0
2797	5658.274301459182	1041.083506268868	0
2798	5658.274162595381	1041.083497527137	0
2799	5659.276542256112	1041.063648763034	0
2800	5658.274415383205	1041.083514471959	0
2801	5659.276839437891	1041.063672690022	0
2802	5659.276841153966	1041.063664817877	0
2803	5676.447565019727	1040.233644294171	0
2804	5676.447529818348	1040.233652115591	0
2805	5677.4480857277	1040.099317312151	0
2806	5676.448029521415	1040.233646405256	0
2807	5677.448240533417	1040.099312298601	0
2808	5677.448080026462	1040.099314128893	0
2809	5755.585135793344	1029.933058958794	0
2810	5755.585237821758	1029.933055595611	0
2811	5756.57072171545	1029.756120443651	0
2812	5755.585321193636	1029.93305314463	0
2813	5756.570518209699	1029.756117915795	0
2814	5756.57088533503	1029.756079837047	0
2815	5768.607028157418	1028.238680203998	0
2816	5768.607012572459	1028.238674785743	0
2817	5769.566118656066	1027.940265551928	0
2818	5768.608717615312	1028.238922928659	0
2819	5769.566236121655	1027.940289084821	0
2820	5769.566156018028	1027.940259644321	0
2821	5772.538505615429	1027.397303644633	0
2822	5772.538326133656	1027.397314916308	0
2823	5773.522761756767	1027.189267714124	0
2824	5772.538497009036	1027.397310926201	0
2825	5773.522730690153	1027.189295985771	0
2826	5773.522567713162	1027.189301701323	0
2827	5777.472135917031	1026.394066599499	0
2828	5777.472360206397	1026.393977273869	0
2829	5778.468576558311	1026.246882342703	0
