idx	X	Y	component
0	1000	1108.152754362178	0
1	1001.897535968359	1108.791924619686	0
2	1001.89754681677	1108.79192751852	0
3	1009.689557653243	1110.734400715669	0
4	1009.689532444109	1110.73439030178	0
5	1010.617056850056	1111.117747721815	0
6	1009.689634943564	1110.73439125355	0
7	1010.617005921563	1111.117718859994	0
8	1010.61705545551	1111.11774746242	0
9	1019.364336337387	1113.458990727849	0
10	1019.364267127596	1113.459001650393	0
11	1020.332938048578	1113.736628426177	0
12	1019.36457458884	1113.459011081168	0
13	1020.33298293472	1113.736628632911	0
14	1020.332941317855	1113.736629625459	0
15	1022.302731292346	1114.186406768927	0
16	1022.302991662954	1114.186416791688	0
17	1023.2835394213	1114.419016059943	0
18	1022.302767817421	1114.186415857814	0
19	1023.283569803395	1114.419019918602	0
20	1023.283593340992	1114.419005566486	0
21	1051.135376430766	1119.477808231442	0
22	1051.13538974323	1119.477806873345	0
23	1052.125105395812	1119.667542414102	0
24	1051.135410442984	1119.477817302849	0
25	1052.124954062157	1119.667526016834	0
26	1052.124979557801	1119.667531715143	0
27	1058.121637624015	1120.652753412458	0
28	1058.121521491862	1120.652754542928	0
29	1059.124001324651	1120.789744981337	0
30	1058.121610642105	1120.652777825815	0
31	1059.123995413482	1120.789757434637	0
32	1059.124410054417	1120.789771255534	0
33	1069.214459409542	1121.686746512706	0
34	1069.213790670017	1121.68659156796	0
35	1070.227016207052	1121.719522035021	0
36	1069.214371606318	1121.686755874146	0
37	1070.227240657556	1121.719570547872	0
38	1070.227662584379	1121.719527765229	0
39	1080.359720732554	1121.411539166372	0
40	1080.359964449871	1121.411516306083	0
41	1081.368247988366	1121.366178721614	0
42	1080.359722343202	1121.411536191737	0
43	1081.368395759539	1121.366201336496	0
44	1081.368359459709	1121.366169846794	0
45	1089.705389350847	1120.495090249113	0
46	1089.702460278464	1120.495300289622	0
47	1090.039144815029	1120.472592009022	0
48	1090.039065233078	1120.472600210468	0
49	1111.62300963351	1120.202062514616	0
50	1111.623354473156	1120.202018594736	0
51	1112.628570245672	1120.100776555516	0
52	1111.622971684539	1120.202077987074	0
53	1112.629131504483	1120.101099820218	0
54	1112.628536712314	1120.100794503008	0
55	1121.692331538013	1119.03084433881	0
56	1121.69233153901	1119.030844338732	0
57	1122.699125451936	1118.917080303278	0
58	1121.692320218846	1119.030907466446	0
59	1122.699102353165	1118.917146030039	0
60	1122.699088580858	1118.917086356172	0
61	1124.702075054255	1118.590994263391	0
62	1124.702099858072	1118.590969067807	0
63	1125.70493954755	1118.436870838677	0
64	1124.702348852022	1118.590969520613	0
65	1125.704968781387	1118.436897094942	0
66	1125.704919466383	1118.436901474695	0
67	1126.706122753902	1118.271625970941	0
68	1126.706189167701	1118.271611382688	0
69	1127.699873960811	1118.077644668248	0
70	1126.706694675701	1118.271725821542	0
71	1127.700062147209	1118.077722101489	0
72	1127.699818819178	1118.077651534069	0
73	1138.515419242667	1115.345278098566	0
74	1138.515404001889	1115.345280666904	0
75	1139.482878655697	1115.046107319657	0
76	1138.515994338243	1115.345361157086	0
77	1139.482878198555	1115.04629550119	0
78	1139.482877265581	1115.046297005847	0
79	1145.170495196512	1112.90384229709	0
80	1145.170367857864	1112.903811922455	0
81	1146.121332897379	1112.549245752714	0
82	1145.170412613754	1112.903856055299	0
83	1146.121150094443	1112.54936659319	0
84	1146.121392209489	1112.54922652405	0
85	1148.997584055644	1111.584455012822	0
86	1148.997422840337	1111.584459344968	0
87	1149.966330004511	1111.290859716855	0
88	1148.997539959894	1111.584463322983	0
89	1149.966310040168	1111.290844618538	0
90	1149.966192335152	1111.290792582924	0
91	1152.803881347199	1110.211471952373	0
92	1152.803972252859	1110.211433111569	0
93	1153.738439508853	1109.820721863867	0
94	1152.80399719272	1110.211429170911	0
95	1153.738253337958	1109.820783672131	0
96	1153.738131933129	1109.820797911322	0
97	1154.691776139143	1109.474543407877	0
98	1154.691876457438	1109.474521932034	0
99	1155.638310742356	1109.117338220851	0
100	1154.692054094022	1109.474483656764	0
101	1155.638586077019	1109.117320914183	0
102	1155.638640695265	1109.117320024615	0
103	1163.491708311453	1107.105998303961	0
104	1163.491650902902	1107.105982301574	0
105	1164.422737650643	1106.722040710086	0
106	1163.491835569038	1107.106165279104	0
107	1164.422719423909	1106.722047589349	0
108	1164.422719163555	1106.722030127182	0
109	1191.527499186166	1098.429805295508	0
110	1191.527428425451	1098.429811013455	0
111	1192.475729767061	1098.085449897846	0
112	1191.527300150079	1098.429885806219	0
113	1192.475769486973	1098.085480028723	0
114	1192.475740560991	1098.085488791386	0
115	1198.190601368052	1096.040321818822	0
116	1198.190668837552	1096.040302193635	0
117	1199.130357422354	1095.660883149963	0
118	1198.190680839059	1096.040297418086	0
119	1199.13074997006	1095.660798947109	0
120	1199.13046287199	1095.660852031859	0
121	1202.906370169675	1094.203041838012	0
122	1202.906377341288	1094.203036445226	0
123	1203.852890509136	1093.855727331824	0
124	1202.906059854703	1094.203119734261	0
125	1203.853071637854	1093.855835698327	0
126	1203.852964870391	1093.855698375984	0
127	1206.647772085678	1092.655890217592	0
128	1206.647876743077	1092.655843243031	0
129	1207.624803303964	1092.386334687736	0
130	1206.648037575047	1092.655829845948	0
131	1207.62495160685	1092.386301635758	0
132	1207.624942983045	1092.386286273977	0
133	1212.396499077311	1090.693384306694	0
134	1212.396467677017	1090.693396273868	0
135	1213.328625198704	1090.302873960836	0
136	1212.396494916701	1090.693498048107	0
137	1213.328540669262	1090.302972837751	0
138	1213.32841825162	1090.302955594414	0
139	1216.183622561341	1089.250038813999	0
140	1216.183896654218	1089.24995512328	0
141	1217.140452091387	1088.911193869081	0
142	1216.183761292903	1089.249989265332	0
143	1217.140826183662	1088.911022789451	0
144	1217.140826182955	1088.911022790159	0
145	1235.445841350761	1082.942447733542	0
146	1235.445708133179	1082.942453452558	0
147	1236.395772399072	1082.605091045833	0
148	1235.445834680637	1082.942473320789	0
149	1236.396555857484	1082.604961436639	0
150	1236.396218648963	1082.605027942713	0
151	1240.363690170718	1081.759944222063	0
152	1240.363658596207	1081.759936092791	0
153	1241.344961518355	1081.491038218898	0
154	1240.363776117636	1081.759906160245	0
155	1241.345114407102	1081.491013700486	0
156	1241.345126972175	1081.491018230136	0
157	1244.353254569591	1080.923644283532	0
158	1244.353248773946	1080.923607691636	0
159	1245.3273990392	1080.650460267462	0
160	1244.354584314562	1080.923551060388	0
161	1245.33117506706	1080.649638794606	0
162	1245.327773759898	1080.650350268789	0
163	1247.567191339271	1079.9987761482	0
164	1247.578731560522	1079.996647366943	0
165	1247.709698810923	1079.973620583486	0
166	1247.709418235995	1079.973660256187	0
167	1250.034996604598	1079.771284510032	0
168	1250.034550061869	1079.7713220027	0
169	1251.021614463137	1079.493694600372	0
170	1250.031951194064	1079.771438308334	0
171	1251.019801534611	1079.493941363629	0
172	1251.019425627942	1079.494022443435	0
173	1270.556191272281	1073.940884510272	0
174	1270.556595396842	1073.940736825883	0
175	1271.54636986495	1073.725588156453	0
176	1270.556789329051	1073.940810178918	0
177	1271.546332363646	1073.725647973743	0
178	1271.546619954942	1073.725604403711	0
179	1272.530123386145	1073.469630506399	0
180	1272.530408393777	1073.46952195822	0
181	1273.527898428914	1073.289298304608	0
182	1272.530200837182	1073.469622499132	0
183	1273.527286393645	1073.289452448559	0
184	1273.527965376227	1073.289293479972	0
185	1277.453021358946	1072.254995778505	0
186	1277.452994584565	1072.254998850435	0
187	1279.406481654926	1071.736790793871	0
188	1277.452934986829	1072.255020479751	0
189	1279.406245298262	1071.736838302716	0
190	1279.406294716063	1071.736798705663	0
191	1282.393410204752	1071.103654828624	0
192	1282.392531530562	1071.103862448009	0
193	1283.408504476663	1070.906191948222	0
194	1282.377239481139	1071.106828395269	0
195	1283.382209013497	1070.913902903957	0
196	1283.408057793758	1070.906326467023	0
197	1284.699336621004	1070.55847057385	0
198	1284.700655329954	1070.558367887798	0
199	1285.150608618643	1070.511340794889	0
200	1285.155747081216	1070.511168684597	0
201	1285.29996589567	1070.497671388285	0
202	1285.295721383871	1070.497869134194	0
203	1289.430606322123	1069.033327429829	0
204	1289.429077416333	1069.033788536766	0
205	1290.435671879311	1068.89198173928	0
206	1289.430528283708	1069.033341669907	0
207	1290.436459139752	1068.89173056581	0
208	1290.435472457743	1068.892015099679	0
209	1314.932810622893	1061.896901582456	0
210	1314.932880852643	1061.896864253645	0
211	1315.91969225043	1061.650278040151	0
212	1314.933355949492	1061.896533727266	0
213	1315.920460892152	1061.649999969686	0
214	1315.919998624978	1061.650215576342	0
215	1326.746072725873	1058.925497481929	0
216	1326.746297224627	1058.925491192132	0
217	1327.753216466735	1058.783036840155	0
218	1326.746329004362	1058.925457908436	0
219	1327.753538824169	1058.782940806439	0
220	1327.752966638488	1058.783044363364	0
221	1335.813533755158	1057.583744162248	0
222	1335.813469407939	1057.583764933867	0
223	1336.783487030816	1057.293802461409	0
224	1335.813325078088	1057.583746723751	0
225	1336.782876209847	1057.29375036694	0
226	1336.783761372875	1057.293795003772	0
227	1353.794897706149	1054.439987992849	0
228	1353.794788825421	1054.439943435134	0
229	1354.792415603584	1054.244425701127	0
230	1353.794835958304	1054.439936824669	0
231	1354.792440202767	1054.244431438247	0
232	1354.79243415995	1054.244446951167	0
233	1370.801056592204	1051.094012755198	0
234	1370.801035020445	1051.094009625222	0
235	1371.79788981716	1050.988694818193	0
236	1370.800674778366	1051.093350612419	0
237	1371.792710443749	1050.970938121585	0
238	1371.797920374814	1050.988696730571	0
239	1380.952723398261	1050.314110306046	0
240	1380.952286350744	1050.313423578565	0
241	1381.927222099484	1050.020904894574	0
242	1380.952765336824	1050.314096615626	0
243	1381.923518479322	1050.015050170567	0
244	1381.927473426319	1050.020873001173	0
245	1389.019504585354	1049.265451025913	0
246	1389.019329211619	1049.265449873905	0
247	1390.028380445598	1049.139178278329	0
248	1389.019491085013	1049.265416381596	0
249	1390.028687112764	1049.139163059003	0
250	1390.028595584743	1049.139177372295	0
251	1400.072818406226	1047.472738700467	0
252	1400.072708116331	1047.472742237657	0
253	1401.075654490204	1047.30215516739	0
254	1400.072758814349	1047.472745188853	0
255	1401.075894797451	1047.302075945896	0
256	1401.075597122918	1047.302158806029	0
257	1406.130755227646	1046.707864866169	0
258	1406.130756125033	1046.70786569102	0
259	1407.137559105076	1046.542074994014	0
260	1406.130995067	1046.707786084138	0
261	1407.137500873368	1046.541784048788	0
262	1407.138100682827	1046.542045094258	0
263	1454.931057408665	1042.78878261579	0
264	1454.931596167988	1042.788802608851	0
265	1455.952728151706	1042.885737614103	0
266	1454.930550432716	1042.786734351086	0
267	1455.952169612995	1042.884068231347	0
268	1455.952619289077	1042.885733670223	0
269	1468.217432558566	1042.789724601285	0
270	1468.217695111406	1042.789720781501	0
271	1469.211504035845	1042.959822853593	0
272	1468.220089605903	1042.783210854737	0
273	1469.206641111357	1042.955182517328	0
274	1469.211504036845	1042.959822853625	0
275	1470.219074387117	1043.099457020214	0
276	1469.211637144839	1042.959808012393	0
277	1470.21918582225	1043.09924282954	0
278	1470.219010704188	1043.099479719344	0
279	1502.676519486411	1045.987938425665	0
280	1502.676606099658	1045.987985107309	0
281	1503.685178329201	1046.073986904257	0
282	1502.676769802811	1045.98792040739	0
283	1503.685392481878	1046.073942335266	0
284	1503.685294613071	1046.073981587084	0
285	1507.738781570514	1046.382464702441	0
286	1507.739861596926	1046.382086886738	0
287	1508.760854464215	1046.32292184097	0
288	1507.738908602691	1046.382467792995	0
289	1508.760375877171	1046.323722922677	0
290	1508.760389052678	1046.323729711275	0
291	1518.903932099087	1047.077482785446	0
292	1518.904081115313	1047.077504602399	0
293	1519.906959073112	1047.234647912153	0
294	1518.90405304614	1047.077220555239	0
295	1519.90628676305	1047.233898976359	0
296	1519.907028724208	1047.234658177794	0
297	1528.96650929005	1048.663134314789	0
298	1528.966259647867	1048.663120584965	0
299	1529.971779511112	1048.842531624176	0
300	1528.965933628263	1048.662732898214	0
301	1529.97245219452	1048.842511505668	0
302	1529.971609642873	1048.842545435516	0
303	1532.977457868015	1049.345739618178	0
304	1532.977663767414	1049.345760600463	0
305	1533.977562904053	1049.538383330103	0
306	1532.977244012657	1049.345587711578	0
307	1533.977724958667	1049.538359298617	0
308	1533.977537986395	1049.538374964453	0
309	1539.97107316571	1050.698755463324	0
310	1539.970717530945	1050.698688650984	0
311	1540.969324277304	1050.89589472538	0
312	1539.9712606126	1050.698727591548	0
313	1540.969540102594	1050.895925365682	0
314	1540.969671251258	1050.895963712011	0
315	1549.977755985923	1052.665625805038	0
316	1549.977685729627	1052.665613822146	0
317	1550.980048338899	1052.772641665186	0
318	1549.977589329156	1052.667270024788	0
319	1550.979385076048	1052.772857488935	0
320	1550.979397910848	1052.772862355801	0
321	1552.000458257198	1052.819212430005	0
322	1550.981413028767	1052.772243797936	0
323	1552.00037251948	1052.819229146756	0
324	1552.00053857769	1052.819229249731	0
325	1554.041844021772	1052.814111427869	0
326	1554.045561927181	1052.811207400478	0
327	1555.061720451584	1052.838320561676	0
328	1554.041844020773	1052.814111427831	0
329	1555.061495799745	1052.838436009075	0
330	1555.061888220933	1052.83846498245	0
331	1563.218149941156	1052.908078867639	0
332	1563.218064535492	1052.908081033822	0
333	1564.219925750974	1053.084654860106	0
334	1563.218280482015	1052.907596087156	0
335	1564.219758191924	1053.084515487606	0
336	1563.218535365304	1052.907881957319	0
337	1564.220559766517	1053.081962028823	0
338	1564.219864659086	1053.084660044474	0
339	1568.195874794515	1054.027741593971	0
340	1568.194682263177	1054.027602916206	0
341	1569.199627539729	1054.22331705664	0
342	1568.196175751482	1054.027726800871	0
343	1569.200353943873	1054.223357556803	0
344	1569.20032600649	1054.223417327496	0
345	1574.235977887441	1054.96717186048	0
346	1574.236069433327	1054.967190281339	0
347	1575.223312504989	1055.222722591818	0
348	1574.242685328897	1054.960024889522	0
349	1575.222341625464	1055.222017764813	0
350	1575.223315320874	1055.222736126934	0
351	1586.082450514998	1057.939917356124	0
352	1586.081984299206	1057.93982618292	0
353	1587.052888866056	1058.250520614928	0
354	1586.082194418306	1057.939857448556	0
355	1587.055893817376	1058.25099903811	0
356	1587.055790088578	1058.250962852001	0
357	1589.041746923993	1058.719878468237	0
358	1589.041523755425	1058.719814062632	0
359	1589.99649348451	1059.06136923794	0
360	1589.043071281948	1058.720056163336	0
361	1589.997665545939	1059.061587638389	0
362	1589.996825743906	1059.061420610499	0
363	1600.009234814149	1061.316487864816	0
364	1600.009295668564	1061.316502273436	0
365	1601.492688755652	1061.410805664562	0
366	1600.016998900527	1061.317422694838	0
367	1601.477602978756	1061.410051100536	0
368	1601.492462024282	1061.410756745837	0
369	1602.49847674888	1061.639343190543	0
370	1601.505436757202	1061.411346167196	0
371	1602.500626171685	1061.639656497184	0
372	1602.497530436226	1061.639283174472	0
373	1606.40097647735	1062.779822167841	0
374	1606.401000915338	1062.779939071589	0
375	1607.395577694856	1062.997872633175	0
376	1606.400995201188	1062.779852509219	0
377	1607.394936760982	1062.979011900205	0
378	1607.395586940885	1062.997903853932	0
379	1608.399327232868	1063.172104150307	0
380	1607.395030700478	1062.979006260715	0
381	1608.398175539921	1063.17084114087	0
382	1608.399182496263	1063.172105026607	0
383	1609.388672006368	1063.405127799832	0
384	1608.398272867604	1063.170866849969	0
385	1609.38831995541	1063.405020844692	0
386	1609.388629336993	1063.405119081637	0
387	1638.182287015793	1069.719283927185	0
388	1638.182376290525	1069.719299541278	0
389	1639.146239454197	1070.083294467169	0
390	1638.182944921332	1069.718090160053	0
391	1639.146029153261	1070.083244210096	0
392	1639.146378391619	1070.083334898072	0
393	1661.730115062583	1076.027318567293	0
394	1661.730626167114	1076.027491611412	0
395	1662.705707100534	1076.269855976962	0
396	1661.730130131472	1076.027327317172	0
397	1662.705509065959	1076.26976449053	0
398	1662.705049136447	1076.269704243081	0
399	1669.814068896902	1078.300654273589	0
400	1669.815825523864	1078.30114787513	0
401	1670.170502691927	1078.402931774678	0
402	1670.166393522511	1078.401771114776	0
403	1678.260971134006	1080.626871249849	0
404	1678.260425434936	1080.626784771764	0
405	1679.257549563177	1080.824392795276	0
406	1678.260887578402	1080.626867190144	0
407	1679.257600151331	1080.824354193299	0
408	1679.25791901909	1080.824434327567	0
409	1688.93085212809	1083.933110137881	0
410	1688.930730561597	1083.933091293623	0
411	1689.920924793852	1084.155359075679	0
412	1688.930750303084	1083.933028353935	0
413	1689.920918472683	1084.155324703767	0
414	1689.920966380402	1084.155374659712	0
415	1692.906700709041	1084.752360940802	0
416	1692.906743430201	1084.752363047882	0
417	1693.86748694377	1085.078109682903	0
418	1692.906079563247	1084.752017093186	0
419	1693.867497557944	1085.078139314887	0
420	1693.867416246921	1085.078085265004	0
421	1710.555893035012	1089.45723456958	0
422	1710.555894852956	1089.457238466561	0
423	1711.537247156078	1089.722332192242	0
424	1710.555759694242	1089.457041624418	0
425	1711.536968162986	1089.722258286148	0
426	1711.537045859739	1089.722281354836	0
427	1712.516901479038	1089.9979819929	0
428	1712.516329416874	1089.997722530919	0
429	1713.479376124744	1090.331958303898	0
430	1712.516930067348	1089.997994562531	0
431	1713.479570404153	1090.332055983749	0
432	1713.479385522767	1090.331966743858	0
433	1721.205485573306	1092.822158430981	0
434	1721.205654553504	1092.822220226393	0
435	1722.177528138758	1093.109963663952	0
436	1721.205703038545	1092.822238058041	0
437	1722.177852793177	1093.110013648819	0
438	1722.177818847223	1093.110003600118	0
439	1723.155510002456	1093.381087916085	0
440	1723.155844632458	1093.381153178897	0
441	1724.144294369394	1093.621456685404	0
442	1723.155823658165	1093.381189562469	0
443	1724.145211652477	1093.621574778238	0
444	1724.145596776462	1093.62164620163	0
445	1730.088794247856	1095.006924308258	0
446	1730.089181688615	1095.007058418737	0
447	1731.042958238388	1095.367967488629	0
448	1730.089809711669	1095.007004368024	0
449	1731.043345297594	1095.368205114521	0
450	1731.042905455249	1095.367908596112	0
451	1742.012035586557	1097.440744315274	0
452	1742.011903539187	1097.440758573383	0
453	1743.016867273855	1097.576090064307	0
454	1742.012170927413	1097.440938203341	0
455	1743.017859819354	1097.574321156469	0
456	1743.016968857431	1097.57611471195	0
457	1744.988929963418	1098.087851888009	0
458	1744.989110169841	1098.087885788064	0
459	1745.973881727894	1098.336398863987	0
460	1745.973721025943	1098.336386865226	0
461	1746.959104747988	1098.581577236228	0
462	1744.98723479125	1098.082006320829	0
463	1745.974290322959	1098.33533295	0
464	1745.974357758648	1098.335340794535	0
465	1746.959077769923	1098.581468153269	0
466	1746.959130125616	1098.58154536074	0
467	1754.950246942698	1100.076586992112	0
468	1754.950488716765	1100.076670248585	0
469	1755.904262570841	1100.42715601598	0
470	1754.950417757545	1100.076483593036	0
471	1755.903801894075	1100.427550299462	0
472	1755.904089364166	1100.427133653405	0
473	1775.726810299482	1104.853744027571	0
474	1775.72658903314	1104.853683682172	0
475	1776.731870376079	1105.032936037012	0
476	1775.727048790362	1104.853757510725	0
477	1776.731801751347	1105.032920469982	0
478	1776.731833396064	1105.032910614859	0
479	1783.752124323436	1106.149112093529	0
480	1783.752191188379	1106.149137244194	0
481	1784.751824548745	1106.354791184923	0
482	1783.752246886968	1106.149115026175	0
483	1784.752142762494	1106.354765350094	0
484	1784.752405628651	1106.354805453882	0
485	1798.58200601838	1109.603408315462	0
486	1798.582006017603	1109.603408316092	0
487	1799.546850769061	1109.92528078899	0
488	1799.544802494145	1109.927804178035	0
489	1801.485709176098	1110.505088384302	0
490	1798.582114860323	1109.603328885101	0
491	1799.547813617309	1109.92404598655	0
492	1799.547966680389	1109.924075841727	0
493	1801.48593090243	1110.50511124418	0
494	1801.4859674389	1110.505109876243	0
495	1817.24107145403	1114.638013695554	0
496	1817.241145212693	1114.638031746695	0
497	1819.255150517399	1114.935413111714	0
498	1817.241853793778	1114.638152581581	0
499	1819.25568122575	1114.935505034136	0
500	1819.255487810964	1114.935496117734	0
501	1832.201372577555	1117.569118123954	0
502	1832.201372576616	1117.569118124299	0
503	1833.185731837598	1117.805974527014	0
504	1832.201532440275	1117.569194834897	0
505	1833.186014847753	1117.806110059643	0
506	1833.185795730564	1117.806037983421	0
507	1837.086340606854	1118.942469965679	0
508	1837.086667044066	1118.942634099231	0
509	1838.060970493118	1119.216234075216	0
510	1837.086302316517	1118.942458809618	0
511	1838.061056232329	1119.21605568833	0
512	1838.061039753536	1119.216071564618	0
513	1846.00249214318	1120.918464736082	0
514	1846.002565519901	1120.918495267993	0
515	1846.964836545563	1121.233341545072	0
516	1846.003001073736	1120.918497565133	0
517	1846.965343953078	1121.233376510392	0
518	1846.96527549829	1121.233348752648	0
519	1855.869980014521	1123.304557419885	0
520	1855.870027560954	1123.30456295179	0
521	1856.818231173913	1123.657200472405	0
522	1855.870183286272	1123.30460131103	0
523	1856.818569878276	1123.657191620494	0
524	1856.818270435494	1123.657157030691	0
525	1874.853020621174	1126.700684933808	0
526	1874.85336020481	1126.700787579191	0
527	1875.84218510139	1126.928110376027	0
528	1874.852972460263	1126.700685755249	0
529	1875.842373019691	1126.928101396571	0
530	1875.84231538468	1126.928085055234	0
531	1879.819386005664	1127.749098333671	0
532	1879.818871027301	1127.749055198593	0
533	1880.815175199277	1127.943671836909	0
534	1879.818828250955	1127.749011418783	0
535	1880.815292688795	1127.943679228494	0
536	1880.815341882	1127.943686917872	0
537	1890.784265097675	1130.032214911399	0
538	1890.784352974318	1130.032246443161	0
539	1891.745480782138	1130.374589122719	0
540	1891.744941438377	1130.375433976404	0
541	1892.749320077799	1130.558107776815	0
542	1890.785115555227	1130.032183535175	0
543	1891.745676974955	1130.374443104476	0
544	1891.745436308011	1130.374579231332	0
545	1892.748960475159	1130.557985007592	0
546	1892.749381943098	1130.558096240545	0
547	1898.708239636943	1131.857205594687	0
548	1898.708310436651	1131.857225272138	0
549	1899.709864773749	1132.02040229989	0
550	1898.70886337158	1131.857293463301	0
551	1899.710350776294	1132.020526314253	0
552	1899.709954217013	1132.020413215659	0
553	1900.703349386573	1132.260423067064	0
554	1900.703586497718	1132.260473243547	0
555	1901.710761124156	1132.409956319738	0
556	1900.703907435769	1132.262549960969	0
557	1901.698122911281	1132.502349955312	0
558	1901.711092668363	1132.410042996073	0
559	1902.728268562168	1132.446733831754	0
560	1901.709906015123	1132.418565397775	0
561	1902.728337863015	1132.446748029334	0
562	1902.728334010583	1132.446749964007	0
563	1911.867671508824	1133.467869290605	0
564	1911.867303906523	1133.46791220999	0
565	1912.887394049755	1133.519188758389	0
566	1911.86719056718	1133.467949656098	0
567	1912.888732312553	1133.519303788805	0
568	1912.887706189283	1133.51920596615	0
569	1941.916738879773	1139.004289311018	0
570	1941.916607213557	1139.004285397797	0
571	1942.919358222221	1139.199861567733	0
572	1941.916324421448	1139.005616583654	0
573	1942.92044561299	1139.200748516957	0
574	1942.919687748323	1139.199959300419	0
575	1943.940831480267	1139.247812340686	0
576	1942.921387857541	1139.201230714073	0
577	1943.941280242107	1139.248055553556	0
578	1943.941160140659	1139.247849828957	0
579	1945.966574105012	1139.490637628881	0
580	1945.966692842093	1139.490660888018	0
581	1946.983968951115	1139.57584512963	0
582	1945.966574105993	1139.490637629076	0
583	1946.984519951959	1139.575837911301	0
584	1946.984774068959	1139.57587895718	0
585	1974.218043467415	1143.859733633914	0
586	1974.218010836714	1143.859750228125	0
587	1975.23908247611	1143.857470446734	0
588	1974.217304144323	1143.869482064898	0
589	1975.238270833713	1143.858027011274	0
590	1975.239338460641	1143.857460720194	0
591	1977.280427457934	1144.04496149571	0
592	1977.28051859479	1144.044972870399	0
593	1978.300423431238	1144.004514348147	0
594	1977.275973967719	1144.050471376722	0
595	1978.297474396425	1144.026423055558	0
596	1978.300447251469	1144.004499651291	0
597	1982.393391493347	1143.994978324026	0
598	1982.393736414454	1143.99500345953	0
599	1983.396730439122	1144.007365957867	0
600	1982.391811278449	1143.994927111018	0
601	1983.394279060818	1144.007173066849	0
602	1983.396439663798	1144.007282537808	0
603	1985.796454843569	1144.347080546413	0
604	1985.70101671619	1144.340693856723	0
605	1985.850382125965	1144.351062057903	0
606	1985.850756704465	1144.35100494626	0
607	1987.116107866953	1144.386446552248	0
608	1987.119001716257	1144.386572714362	0
609	1988.136360254753	1144.366824390655	0
610	1987.124207342588	1144.398792169846	0
611	1988.136315838411	1144.371422189352	0
612	1987.115448993589	1144.357107791068	0
613	1988.139537297953	1144.367029338183	0
614	1988.139153417525	1144.366975139112	0
615	2001.355699647214	1142.74088614035	0
616	2001.355814619273	1142.740894868653	0
617	2002.37371695971	1142.69843962578	0
618	2001.356740898867	1142.741053742737	0
619	2002.373533587569	1142.698487388564	0
620	2002.373737812701	1142.698450284579	0
621	2010.486070587254	1141.638195440755	0
622	2010.485537360715	1141.638317763526	0
623	2011.502912568709	1141.504751517825	0
624	2010.485876926966	1141.638222325563	0
625	2011.50292681701	1141.504778240216	0
626	2011.502891341723	1141.504706540181	0
627	2026.720547824565	1139.988089627766	0
628	2026.720557525911	1139.988086332123	0
629	2027.727165715776	1139.864397362349	0
630	2027.727153754172	1139.864401318368	0
631	2028.736653779205	1139.736269430951	0
632	2026.715342920975	1139.990564988849	0
633	2027.725122993379	1139.86901174946	0
634	2027.726372358413	1139.865915172558	0
635	2028.737462646993	1139.736213179526	0
636	2028.737440992259	1139.736195307048	0
637	2037.885772328518	1139.160033657726	0
638	2037.885775095338	1139.160037336118	0
639	2038.895559992186	1139.037721157964	0
640	2037.886473696934	1139.160616245012	0
641	2038.895042011183	1139.037878012602	0
642	2038.895217375974	1139.037772069063	0
643	2052.027791900265	1137.386237958522	0
644	2052.027791901265	1137.386237958499	0
645	2053.032861642612	1137.227726538952	0
646	2052.02975769527	1137.38632398428	0
647	2053.032875002076	1137.227784686221	0
648	2053.032951388365	1137.227715424427	0
649	2056.076949226741	1136.968352162821	0
650	2056.07680866702	1136.968393270362	0
651	2057.084180290547	1136.795251315364	0
652	2056.076564373229	1136.968487230405	0
653	2057.084509283944	1136.795414937875	0
654	2057.084437944799	1136.795216075312	0
655	2061.110645333549	1136.179394092573	0
656	2061.110609385439	1136.179381059132	0
657	2062.104611995882	1135.965949751639	0
658	2061.111570549466	1136.179363010544	0
659	2062.104799630553	1135.965909481222	0
660	2062.104365615851	1135.965944256865	0
661	2097.608651570183	1133.088618109182	0
662	2097.608578434253	1133.088179570711	0
663	2098.592793051413	1132.804762773646	0
664	2097.608490188546	1133.088666376544	0
665	2098.592678191895	1132.804976141831	0
666	2098.593613247653	1132.804826800944	0
667	2116.702385246409	1129.835713736475	0
668	2116.702584091577	1129.835662037954	0
669	2117.68350393612	1129.581195893185	0
670	2116.7023852474	1129.835713736613	0
671	2117.683465221985	1129.581232232638	0
672	2117.683528826334	1129.581174008598	0
673	2144.982850435098	1126.409333720507	0
674	2144.982776701591	1126.409362068949	0
675	2146.990737730972	1126.076701841051	0
676	2144.982797139288	1126.409594769374	0
677	2146.990933038708	1126.077065880686	0
678	2146.991008741849	1126.077026529611	0
679	2162.813948704932	1122.172488332504	0
680	2162.814287437962	1122.172400712619	0
681	2163.792795938871	1121.875280005344	0
682	2162.813948705914	1122.172488332697	0
683	2163.793065818841	1121.875243489527	0
684	2163.79307236097	1121.875227577472	0
685	2175.712342421178	1119.36532459606	0
686	2175.712422467526	1119.36529932677	0
687	2176.701792506856	1119.131274907049	0
688	2175.71266247601	1119.365351361864	0
689	2176.701755524041	1119.131294482821	0
690	2176.701721822917	1119.131292285397	0
691	2183.695302841311	1117.809605812276	0
692	2183.695302842294	1117.809605812093	0
693	2184.682972984739	1117.595310521905	0
694	2183.69580765241	1117.80953888877	0
695	2184.683127045868	1117.595298408166	0
696	2184.683245618231	1117.595270729982	0
697	2187.640432897008	1116.866322131269	0
698	2187.64031066383	1116.866343955553	0
699	2188.625164502401	1116.631547039259	0
700	2187.640992898168	1116.866325475133	0
701	2188.625468699047	1116.631537774562	0
702	2188.6251645034	1116.631547039202	0
703	2194.573927914424	1115.360705927936	0
704	2194.574229742568	1115.360679631743	0
705	2195.566474599323	1115.159648207525	0
706	2194.57455645889	1115.360662858052	0
707	2195.566468810239	1115.159840442306	0
708	2195.566504697743	1115.159830840528	0
709	2227.09339492054	1107.241800317561	0
710	2227.093352939169	1107.241811803757	0
711	2228.084903511776	1107.03142729274	0
712	2227.091552813245	1107.241313362158	0
713	2228.082171741616	1107.028352592445	0
714	2228.088249772373	1107.034420739071	0
715	2230.107006733265	1106.774368337587	0
716	2228.085079031698	1107.03140989835	0
717	2230.105073560717	1106.77444313673	0
718	2230.104987516391	1106.774461705387	0
719	2231.108333112473	1106.602415320081	0
720	2231.108340749851	1106.602369198266	0
721	2232.116926831372	1106.505552841754	0
722	2231.108339740693	1106.602417154953	0
723	2232.116268743076	1106.506780813305	0
724	2232.116939196712	1106.506615549813	0
725	2259.616818052465	1099.168469826233	0
726	2259.616726257062	1099.168446459348	0
727	2260.573285098173	1098.831402739102	0
728	2259.616823807536	1099.16844536215	0
729	2260.573867393774	1098.831173109653	0
730	2259.616816106069	1099.168471005949	0
731	2260.593360602653	1098.895758515679	0
732	2260.573643123815	1098.831354736388	0
733	2261.572905755893	1098.657028499189	0
734	2260.593765022235	1098.895634817983	0
735	2261.572894410554	1098.657026129393	0
736	2261.573110149815	1098.657012943971	0
737	2292.533190688913	1092.555161028074	0
738	2292.533226723468	1092.555160278772	0
739	2294.499124418769	1092.042036751768	0
740	2292.53377939489	1092.555154338128	0
741	2294.499608661158	1092.042002798842	0
742	2294.499928307634	1092.041924550069	0
743	2297.487364072436	1091.385712853006	0
744	2297.487580550723	1091.385638492474	0
745	2298.441862295898	1091.027703539225	0
746	2297.488358429641	1091.387257043413	0
747	2298.444060024869	1091.027974331725	0
748	2298.441967215827	1091.027700779744	0
749	2302.293393758408	1089.713449319185	0
750	2302.293551215695	1089.71341601986	0
751	2303.279160472001	1089.478170344164	0
752	2302.283914539162	1089.711058275409	0
753	2303.278264482921	1089.47795890265	0
754	2303.279251690782	1089.478147606241	0
755	2305.284617965071	1089.158017065268	0
756	2303.27972380761	1089.478388785162	0
757	2305.284881913763	1089.157977945731	0
758	2305.284627744999	1089.158016538221	0
759	2310.279774016785	1088.231508155618	0
760	2310.279757553242	1088.231483930495	0
761	2311.266241249951	1087.990668347876	0
762	2310.279522463652	1088.231659650963	0
763	2311.266348255398	1087.990905666232	0
764	2311.266583182337	1087.990646041901	0
765	2312.257801370101	1087.742784832352	0
766	2312.25871757533	1087.742797131671	0
767	2315.184733738123	1086.879090980226	0
768	2312.257755863126	1087.742835465534	0
769	2315.183686987562	1086.879131285605	0
770	2315.185141401263	1086.878974424601	0
771	2322.126454150369	1085.33119405576	0
772	2322.126481936856	1085.331185334377	0
773	2323.084690195563	1085.002547767337	0
774	2322.126214769095	1085.331216675402	0
775	2323.085244246012	1085.002468602572	0
776	2323.084918836351	1085.002571990953	0
777	2325.070324770603	1084.54586632328	0
778	2325.070368173115	1084.54583030585	0
779	2326.043228409069	1084.25920051764	0
780	2325.06810243833	1084.546015418681	0
781	2326.043737720437	1084.258984991094	0
782	2326.043557840891	1084.259096569623	0
783	2348.533085903611	1077.845846504195	0
784	2348.532984946561	1077.845833500768	0
785	2349.498600213049	1077.518304131904	0
786	2348.533026397093	1077.845873242272	0
787	2349.501295244329	1077.518455240298	0
788	2349.501111454579	1077.518562056779	0
789	2350.425266562267	1077.090285297521	0
790	2350.416106175585	1077.090575381835	0
791	2351.324324167391	1076.660553216801	0
792	2350.425293561497	1077.090287034503	0
793	2351.334090114316	1076.667126701245	0
794	2351.334193704121	1076.66708697762	0
795	2358.589677725106	1074.982054105708	0
796	2358.588046050391	1074.982201963902	0
797	2359.252044500302	1074.897336252467	0
798	2359.1619069569	1074.908249101959	0
799	2359.346527136564	1074.885882445937	0
800	2359.253501482461	1074.897122099614	0
801	2370.852785088432	1073.039194467832	0
802	2370.853046028421	1073.039185542291	0
803	2371.830934853679	1072.779495467797	0
804	2370.852686109804	1073.039344720838	0
805	2371.82854078527	1072.779816747164	0
806	2371.831231936616	1072.779341262747	0
807	2374.831212886837	1072.175516979088	0
808	2374.831429184182	1072.175463619366	0
809	2375.826187045317	1071.974735405122	0
810	2374.831366987078	1072.175527933455	0
811	2375.826775422052	1071.974763889444	0
812	2375.826557384232	1071.974708238535	0
813	2386.889916615643	1070.20386170595	0
814	2386.891671651021	1070.20326207074	0
815	2387.903963601925	1070.004720570701	0
816	2386.889587781238	1070.2039080926	0
817	2387.904242974526	1070.004644327515	0
818	2387.903925131747	1070.00472942956	0
819	2451.971611371028	1057.905295922715	0
820	2451.969493903131	1057.905336531383	0
821	2453.914975290613	1057.337765774253	0
822	2451.97210059288	1057.905229773889	0
823	2453.916189275693	1057.337644148055	0
824	2453.916324727554	1057.33763041561	0
825	2465.813758295998	1054.367357263045	0
826	2465.813695006892	1054.368169467999	0
827	2466.804708824578	1054.128854759521	0
828	2465.813732436474	1054.367354784178	0
829	2466.804232175643	1054.128533108922	0
830	2466.803880436456	1054.12857673573	0
831	2475.838141788453	1052.521551604111	0
832	2475.838841481631	1052.521443224093	0
833	2476.83128098902	1052.230557637093	0
834	2475.837264642573	1052.521573917234	0
835	2476.829770062282	1052.228687764315	0
836	2476.830958129914	1052.230630777308	0
837	2490.123357458834	1050.118114690949	0
838	2490.121181300274	1050.118355380731	0
839	2492.079096760188	1049.589206960887	0
840	2490.123357459828	1050.118114690839	0
841	2492.080847254907	1049.588833745644	0
842	2492.080847255856	1049.58883374533	0
843	2496.712498857338	1048.262054338088	0
844	2496.709327752609	1048.262309558151	0
845	2497.581914899799	1048.195264564565	0
846	2497.587593869306	1048.194714092298	0
847	2507.571273563582	1046.896625486992	0
848	2507.570715817415	1046.896622083774	0
849	2508.59262116664	1046.989964626168	0
850	2507.566966354446	1046.897057305569	0
851	2508.591074682569	1046.990200618684	0
852	2508.592494098478	1046.989925583898	0
853	2516.787905383367	1045.980560933345	0
854	2516.788136200569	1045.980527187744	0
855	2517.809689380567	1045.933815128611	0
856	2516.789885982788	1045.979815927115	0
857	2517.810627079361	1045.932937848302	0
858	2517.809593597899	1045.933824519992	0
859	2520.86028114289	1045.548119810169	0
860	2520.860456989908	1045.548017982795	0
861	2521.870469771016	1045.408189690432	0
862	2520.860526639419	1045.548131842894	0
863	2521.870545781998	1045.410667256893	0
864	2521.870580080975	1045.408172926135	0
865	2522.893366024995	1045.333865060313	0
866	2521.870891215593	1045.410631224039	0
867	2522.891135371196	1045.334109945094	0
868	2522.891382514418	1045.334148838203	0
869	2527.982772860491	1044.761225902873	0
870	2527.982697173024	1044.761216490647	0
871	2529.010128910688	1044.69483877176	0
872	2527.980762776336	1044.757249068825	0
873	2529.013179670328	1044.686947387775	0
874	2529.010067318222	1044.694849832152	0
875	2533.095205336891	1044.734575706281	0
876	2533.095849055527	1044.734523463627	0
877	2534.109475804199	1044.720847899697	0
878	2533.096116410791	1044.734517340839	0
879	2534.109737038597	1044.720968645476	0
880	2534.109814262854	1044.720911198837	0
881	2536.151369093904	1044.620014675116	0
882	2536.151468971897	1044.620009865657	0
883	2537.171987373499	1044.617705743877	0
884	2536.151821334673	1044.619986288835	0
885	2537.172069232208	1044.617779455848	0
886	2537.172069231579	1044.617779455071	0
887	2541.269623980191	1044.542274568051	0
888	2541.269244665813	1044.542327800152	0
889	2542.282372441252	1044.638521280414	0
890	2541.269725026498	1044.542286919697	0
891	2542.282882983622	1044.638274021635	0
892	2542.282861893213	1044.638280421647	0
893	2544.33552805901	1044.702488914951	0
894	2544.336683121262	1044.702277518838	0
895	2545.341751832554	1044.857246011278	0
896	2544.335718409301	1044.702482310441	0
897	2545.341576725282	1044.857399184709	0
898	2545.341608454386	1044.857394284261	0
899	2569.741490490987	1047.00500758212	0
900	2569.740816474438	1047.004916475083	0
901	2570.746160852327	1047.138259265736	0
902	2569.741626602471	1047.005010634816	0
903	2570.749855107535	1047.138669556769	0
904	2570.749530290419	1047.138621681435	0
905	2574.841300980767	1047.321917254403	0
906	2574.841876892261	1047.321974791874	0
907	2575.86257272606	1047.292175759831	0
908	2574.842660621232	1047.321785144479	0
909	2575.862939060833	1047.292145789784	0
910	2575.862985019463	1047.292163569227	0
911	2586.065082586507	1047.560960143828	0
912	2586.065014932901	1047.56096349329	0
913	2587.07485333047	1047.701694979359	0
914	2586.070550443271	1047.557340115913	0
915	2587.077312903049	1047.696629982491	0
916	2587.075669578195	1047.701693105543	0
917	2591.119190146019	1048.178009476557	0
918	2591.119177093236	1048.178008854095	0
919	2592.130442251923	1048.286326117622	0
920	2591.119826938687	1048.177926345313	0
921	2592.130196847922	1048.286281019016	0
922	2592.130607245044	1048.286367092974	0
923	2593.146020966863	1048.412796555326	0
924	2593.146057787463	1048.412804303375	0
925	2594.140011310251	1048.6340324439	0
926	2593.147106957557	1048.412670548053	0
927	2594.140477303203	1048.634015336608	0
928	2594.1398782899	1048.634023102587	0
929	2599.223193938381	1049.133929885262	0
930	2599.223958064254	1049.134035673121	0
931	2600.238688402661	1049.207537071866	0
932	2599.223390362625	1049.133879542049	0
933	2600.238879962197	1049.207479503814	0
934	2600.238923611096	1049.207560861665	0
935	2602.262010366746	1049.507255637197	0
936	2602.261939061595	1049.507189891096	0
937	2603.281932375371	1049.622542902741	0
938	2602.264123821121	1049.507150622097	0
939	2603.282207530423	1049.622499941578	0
940	2603.282285699337	1049.622564425747	0
941	2604.267226714096	1049.912707074125	0
942	2603.282997959586	1049.62256669768	0
943	2604.267654802531	1049.912891648081	0
944	2604.267307646789	1049.912859476388	0
945	2631.33485962765	1055.089996217481	0
946	2631.334525707171	1055.089934095262	0
947	2632.326957061543	1055.335960673973	0
948	2631.334934689321	1055.090004625988	0
949	2632.327584321068	1055.33613323312	0
950	2632.327564671927	1055.336126409729	0
951	2648.589232631688	1058.577202061957	0
952	2648.580548395765	1058.576281651876	0
953	2649.411165724311	1059.25887795279	0
954	2648.592275096718	1058.57737145764	0
955	2649.411760747871	1059.259076509253	0
956	2649.409595759643	1059.258593306881	0
957	2654.257136830836	1059.649772219454	0
958	2654.252949199081	1059.649251823918	0
959	2654.928297075303	1059.637784687653	0
960	2654.927635042483	1059.637958616285	0
961	2656.346341718852	1060.163712774283	0
962	2656.348112110651	1060.164181728724	0
963	2657.406705634728	1060.555965365528	0
964	2656.19715652743	1060.145962860051	0
965	2657.322787027402	1060.559702863765	0
966	2657.406390118919	1060.555887294056	0
967	2663.638255960642	1060.917800627084	0
968	2663.637552365979	1060.917748717113	0
969	2664.674617962451	1061.008860189826	0
970	2663.639042640193	1060.916513167496	0
971	2664.678676007495	1060.997231824807	0
972	2664.674606161651	1061.008860081429	0
973	2665.65987674122	1061.323494287643	0
974	2664.666245515247	1061.065448832452	0
975	2665.661408060112	1061.323337194252	0
976	2665.660563208981	1061.323633838433	0
977	2670.644230276409	1062.531155257929	0
978	2670.644484169867	1062.53134562133	0
979	2671.641724215307	1062.758510028766	0
980	2670.643702582718	1062.531066994646	0
981	2671.640934920876	1062.758172435952	0
982	2671.641752255313	1062.75854283233	0
983	2672.649143447399	1062.920014376393	0
984	2672.649221750176	1062.920030248632	0
985	2673.642333980275	1063.163068019987	0
986	2672.647851687675	1062.918937165179	0
987	2673.634537040325	1063.131054086757	0
988	2673.642236357838	1063.163085136605	0
989	2674.605204801841	1063.509522450118	0
990	2673.63918769917	1063.152258167966	0
991	2674.603343184423	1063.490662241725	0
992	2674.60536949785	1063.509523796754	0
993	2675.586336910556	1063.818533779208	0
994	2674.603440358948	1063.490679562913	0
995	2675.585938910711	1063.818506343115	0
996	2675.586864404664	1063.818684272756	0
997	2678.529029491419	1064.673518752565	0
998	2678.529788298756	1064.673589857446	0
999	2680.480013258301	1065.298179732751	0
1000	2678.527681690762	1064.672942220908	0
1001	2680.474739220126	1065.296541619407	0
1002	2680.480172365546	1065.298214677223	0
1003	2696.384180037402	1069.454492694963	0
1004	2696.384546129003	1069.454541237168	0
1005	2697.375882784582	1069.746593364036	0
1006	2696.38563135874	1069.454713484627	0
1007	2697.375767121011	1069.746489083692	0
1008	2697.375802026381	1069.746576168506	0
1009	2698.356185948916	1070.045215615498	0
1010	2698.356233594877	1070.045227029292	0
1011	2699.354925050099	1070.239551956889	0
1012	2698.356416322797	1070.045241243039	0
1013	2699.355175398573	1070.239700211991	0
1014	2699.355368804227	1070.239757022756	0
1015	2701.352967602514	1070.694583855676	0
1016	2701.352914466524	1070.694581207795	0
1017	2702.339270225098	1070.957618307312	0
1018	2701.352331456087	1070.694491542987	0
1019	2702.338774228532	1070.957233804875	0
1020	2702.33881022007	1070.957537366189	0
1021	2710.258914026916	1073.185509520007	0
1022	2710.257081800778	1073.185336737048	0
1023	2711.190063501496	1073.578746686157	0
1024	2710.258229651844	1073.185295120297	0
1025	2711.191825631497	1073.578805948912	0
1026	2711.191203468834	1073.578895084103	0
1027	2717.109777355596	1075.372472589346	0
1028	2717.108860147161	1075.372335774181	0
1029	2718.075325386624	1075.68364043103	0
1030	2717.110366131945	1075.372594639304	0
1031	2718.077346325329	1075.683950991682	0
1032	2718.077304335772	1075.683955883032	0
1033	2722.121966788551	1076.582142442154	0
1034	2722.1214732085	1076.582034181371	0
1035	2723.124898088638	1076.845336356234	0
1036	2722.123720968248	1076.582369685514	0
1037	2723.129299407426	1076.845619785856	0
1038	2723.128476850294	1076.845468718435	0
1039	2724.144026776498	1077.085878003583	0
1040	2724.143367252103	1077.085795996751	0
1041	2725.184579686819	1077.214293662736	0
1042	2724.144390729124	1077.08598079895	0
1043	2725.189702994123	1077.215040736242	0
1044	2725.18537487615	1077.214496249733	0
1045	2742.344819007767	1081.035503844955	0
1046	2742.344866120287	1081.035545370903	0
1047	2743.397676768837	1081.160997598888	0
1048	2742.343517231061	1081.035352668723	0
1049	2743.398130470975	1081.160360169145	0
1050	2743.397552264612	1081.160974174252	0
1051	2753.551944302551	1083.811962614482	0
1052	2753.547663659047	1083.811174913162	0
1053	2754.538309144051	1084.204063399452	0
1054	2753.553120077373	1083.811867489804	0
1055	2754.541406805941	1084.204858407562	0
1056	2754.538503292025	1084.203982371015	0
1057	2755.533079310415	1084.586265273996	0
1058	2755.534789893166	1084.587106324535	0
1059	2756.574293259801	1084.794092615719	0
1060	2755.535676159014	1084.586867506212	0
1061	2756.589261451272	1084.79735276275	0
1062	2756.590540871734	1084.797710044305	0
1063	2772.425659815715	1089.352156472978	0
1064	2772.415666360435	1089.346787232799	0
1065	2773.448629816677	1089.998932598852	0
1066	2772.42215290954	1089.349589448173	0
1067	2773.52594588732	1089.995053053468	0
1068	2773.471756643143	1089.993064858957	0
1069	2774.567540092779	1090.594695846441	0
1070	2773.526018471511	1089.994818234674	0
1071	2774.584851807389	1090.602167834019	0
1072	2774.582287104153	1090.600442560974	0
1073	2777.21527453224	1093.025786921007	0
1074	2777.226672962722	1093.022511678847	0
1075	2774.444709729461	1093.360023903187	0
1076	2774.453968118682	1093.356360950182	0
1077	2773.240458791336	1094.013833280379	0
1078	2774.453561235331	1093.358351173963	0
1079	2773.247248933469	1094.011024744058	0
1080	2773.242892647881	1094.0123652712	0
1081	2782.448664131536	1098.390556373604	0
1082	2782.448289019624	1098.390270003641	0
1083	2782.618743731912	1097.350306671003	0
1084	2782.449675997735	1098.391503154426	0
1085	2782.628960006751	1097.357210006495	0
1086	2782.629204835597	1097.357714706432	0
1087	2778.465657471452	1093.271664973836	0
1088	2778.465293104558	1093.268366996632	0
1089	2785.68066575853	1091.848945567591	0
1090	2785.687209492925	1091.835943559699	0
1091	2786.795458208501	1091.695938045563	0
1092	2785.683958471809	1091.848377671815	0
1093	2786.798344246788	1091.702411508628	0
1094	2786.796372898649	1091.696164836284	0
1095	2791.825324957135	1092.053953222709	0
1096	2791.82567371264	1092.053914802553	0
1097	2792.957197096339	1092.130687161922	0
1098	2791.935687803659	1092.065393284542	0
1099	2792.967962810432	1092.130814006093	0
1100	2792.956483647332	1092.130626933523	0
1101	2812.105879298225	1095.023745487762	0
1102	2812.10579326643	1095.02373310238	0
1103	2813.191961137082	1095.103182209813	0
1104	2812.105735204064	1095.024228613346	0
1105	2813.190947057482	1095.103145618114	0
1106	2813.193120329411	1095.103320914772	0
1107	2814.501209904121	1095.211038695167	0
1108	2814.503417909888	1095.211263868852	0
1109	2814.640123374394	1095.223250976917	0
1110	2814.644182637278	1095.223531204951	0
1111	2820.1035355907	1095.663209494301	0
1112	2820.109881382496	1095.663934895289	0
1113	2821.141219774536	1095.753017377444	0
1114	2820.103693319244	1095.663226841796	0
1115	2821.138703836657	1095.752596409717	0
1116	2821.141555688327	1095.753031279122	0
1117	2831.48644623486	1097.035595648781	0
1118	2831.487156393428	1097.035713646618	0
1119	2832.52030078047	1097.035191042522	0
1120	2831.486403359408	1097.035595822747	0
1121	2832.515796286835	1097.034674459411	0
1122	2832.519230351741	1097.034921859199	0
1123	2833.562267985596	1097.057338421787	0
1124	2833.563581593492	1097.057480196803	0
1125	2834.588030324794	1097.047477319274	0
1126	2833.559862297425	1097.057068165457	0
1127	2834.586865157574	1097.047145442719	0
1128	2834.587735058704	1097.047477353925	0
1129	2859.266025169541	1098.791514260056	0
1130	2859.265951631359	1098.7916811864	0
1131	2860.289536456316	1098.801421467617	0
1132	2859.266794233382	1098.79155867929	0
1133	2860.289896063004	1098.801184056526	0
1134	2860.289894125533	1098.801189577586	0
1135	2878.834504000446	1098.173990774471	0
1136	2878.834669527176	1098.173896779987	0
1137	2879.843121371641	1098.018612486956	0
1138	2878.835573393681	1098.174118516583	0
1139	2879.844810315502	1098.018762504322	0
1140	2879.844855159868	1098.018753777077	0
1141	2898.30368279804	1098.135217488297	0
1142	2898.303608730786	1098.135195668605	0
1143	2899.333637728098	1098.045445598661	0
1144	2898.303503530077	1098.139876041206	0
1145	2899.332074544481	1098.047886350147	0
1146	2899.332065700066	1098.047884907684	0
1147	2906.468401653359	1097.189952649268	0
1148	2906.468659657086	1097.189869984012	0
1149	2907.481374463353	1097.036532976359	0
1150	2906.46780312299	1097.189833910114	0
1151	2907.481273616386	1097.036646713653	0
1152	2907.481065505504	1097.036473531267	0
1153	2910.518225613238	1096.496068944459	0
1154	2910.518268758505	1096.496045268325	0
1155	2911.512531775036	1096.23107274062	0
1156	2910.517525714593	1096.496122990395	0
1157	2911.5119334731	1096.231043244831	0
1158	2911.512451080815	1096.231079387438	0
1159	2915.581737020889	1095.704606117811	0
1160	2915.581627932879	1095.70462482373	0
1161	2916.592570319054	1095.520870476441	0
1162	2915.581960901805	1095.704617818021	0
1163	2916.593594368144	1095.520912340079	0
1164	2916.593738505321	1095.520847305616	0
1165	2924.740768163079	1094.573614969544	0
1166	2924.74118625933	1094.573553701664	0
1167	2925.749768437745	1094.451513167103	0
1168	2924.740874483537	1094.574226863409	0
1169	2925.747866378955	1094.484684104917	0
1170	2925.750058719593	1094.451476898031	0
1171	2930.749632078965	1093.257649622961	0
1172	2930.749782150031	1093.257637249582	0
1173	2931.739580133431	1093.045709792152	0
1174	2930.749536864022	1093.257654025658	0
1175	2931.73974376789	1093.045614815356	0
1176	2931.739754571434	1093.04565422737	0
1177	2939.856560898427	1091.869064176166	0
1178	2939.858636189135	1091.869396040034	0
1179	2940.868492348236	1091.840991709715	0
1180	2939.856345869328	1091.869046684527	0
1181	2940.868582815097	1091.84087722699	0
1182	2940.868716305114	1091.840878870885	0
1183	2963.098805177867	1088.389661594723	0
1184	2963.099029065087	1088.389655813602	0
1185	2964.095519276304	1088.162158858365	0
1186	2963.099309419901	1088.389735465964	0
1187	2964.094982653158	1088.162256456973	0
1188	2964.095735848816	1088.162153000796	0
1189	2996.841809555901	1080.204073165965	0
1190	2996.842181199388	1080.204095037982	0
1191	2997.780392305887	1079.805489210619	0
1192	2996.841752621141	1080.204084180672	0
1193	2997.780581249357	1079.805461285275	0
1194	2997.780658638329	1079.805490159022	0
1195	3006.593081693913	1077.111329537954	0
1196	3006.593026771921	1077.111330072267	0
1197	3007.540611611412	1076.722662055338	0
1198	3006.594236074667	1077.11107782382	0
1199	3007.540907631491	1076.722586308663	0
1200	3007.540834261927	1076.722592904154	0
1201	3008.519958621303	1076.431833423251	0
1202	3008.519904191078	1076.431853780639	0
1203	3009.479446263652	1076.077671314989	0
1204	3008.519760312423	1076.431847708631	0
1205	3009.485460188194	1076.073198112677	0
1206	3009.478966058557	1076.077728066673	0
1207	3010.460833174743	1075.78548297406	0
1208	3009.487053932825	1076.072780905396	0
1209	3010.461589814738	1075.784969551628	0
1210	3010.461601274079	1075.785382904607	0
1211	3016.417383196367	1074.203580007776	0
1212	3016.411318183631	1074.204418261479	0
1213	3017.442815193412	1074.199045495908	0
1214	3016.414765400267	1074.203729923437	0
1215	3017.720248666273	1074.089775468951	0
1216	3017.720248665342	1074.089775469317	0
1217	3018.010310508997	1073.976802362204	0
1218	3017.997073591446	1073.980600464477	0
1219	3027.252069166223	1072.404255189888	0
1220	3027.252555678437	1072.404266735433	0
1221	3028.279037617149	1072.276489624694	0
1222	3027.251937436964	1072.404266775092	0
1223	3028.275240854368	1072.277089991161	0
1224	3028.278449001506	1072.276505570577	0
1225	3029.300471559218	1072.161456696171	0
1226	3029.300486423199	1072.161499834193	0
1227	3030.30539989093	1071.965984184545	0
1228	3029.310334464853	1072.166503280677	0
1229	3030.3054023378	1071.966019564092	0
1230	3030.305434206315	1071.965982607731	0
1231	3039.188084057154	1069.626911591427	0
1232	3039.187575111423	1069.627010241592	0
1233	3040.145930030072	1069.279788483776	0
1234	3039.187832579481	1069.627006545085	0
1235	3040.146255812806	1069.279735905074	0
1236	3040.146278252073	1069.279733402752	0
1237	3041.104042096989	1068.92521690926	0
1238	3041.104042097924	1068.925216908906	0
1239	3042.056014330472	1068.549345778338	0
1240	3041.104002158118	1068.925183300379	0
1241	3042.055845734941	1068.549477943035	0
1242	3042.056429349809	1068.54934131563	0
1243	3050.901462136746	1066.048954720783	0
1244	3050.901663789438	1066.048937488059	0
1245	3052.890845022438	1065.597726946201	0
1246	3050.901021521106	1066.049132302806	0
1247	3052.891414587674	1065.597873030588	0
1248	3052.891900052036	1065.597696161816	0
1249	3058.889254849221	1064.307744865534	0
1250	3058.889240402124	1064.307688224115	0
1251	3059.883421425529	1064.102468637903	0
1252	3058.889453656428	1064.307664287188	0
1253	3059.883200114175	1064.102624732667	0
1254	3059.883636508219	1064.10253607194	0
1255	3066.856655555345	1062.514983785865	0
1256	3066.856655556336	1062.514983785999	0
1257	3067.859162322622	1062.317512399917	0
1258	3066.856080125112	1062.514780296342	0
1259	3067.85941372397	1062.31746587012	0
1260	3067.859210683196	1062.317498640229	0
1261	3083.759895379284	1058.620289032199	0
1262	3083.760278161514	1058.620136658953	0
1263	3084.718323342985	1058.286692965043	0
1264	3083.760320418188	1058.620087235899	0
1265	3084.718402115176	1058.286644289707	0
1266	3084.718782495902	1058.286611036796	0
1267	3085.686885823598	1057.945718021004	0
1268	3085.68733033101	1057.945613486756	0
1269	3086.687324618322	1057.765814204137	0
1270	3085.686122403756	1057.94497079892	0
1271	3086.687350228482	1057.765405488059	0
1272	3086.687369462689	1057.765805476997	0
1273	3089.730602292456	1057.268661848054	0
1274	3089.730882390384	1057.268574607539	0
1275	3090.737665497324	1057.130623382879	0
1276	3089.730674261507	1057.26865266902	0
1277	3090.737839274798	1057.130757429683	0
1278	3090.737827403431	1057.130611860171	0
1279	3097.80389936848	1056.098650260109	0
1280	3097.803612507282	1056.098653403574	0
1281	3098.805678511877	1055.907067756894	0
1282	3097.805084114284	1056.098293702998	0
1283	3098.805255091187	1055.906867574832	0
1284	3098.80586556675	1055.906986426485	0
1285	3099.823963753581	1055.796613257854	0
1286	3099.824343026506	1055.796589474628	0
1287	3100.816202966999	1055.526387802071	0
1288	3099.825032053331	1055.796519229284	0
1289	3100.828343868916	1055.524539509991	0
1290	3100.816192378453	1055.52631991656	0
1291	3101.831961837013	1055.396795926173	0
1292	3100.817218559667	1055.526174113919	0
1293	3101.832105723882	1055.396758542333	0
1294	3101.831861155159	1055.396797779165	0
1295	3110.83345520875	1053.450193844029	0
1296	3110.833543160186	1053.450182121142	0
1297	3111.848524359961	1053.33045756066	0
1298	3110.828179190125	1053.439529960175	0
1299	3111.841810993008	1053.30895041538	0
1300	3111.848383528897	1053.330441490143	0
1301	3115.882871625874	1052.67856210789	0
1302	3115.883020360349	1052.678533251772	0
1303	3116.900450317836	1052.596971019813	0
1304	3115.883345932714	1052.674180487231	0
1305	3116.886053384059	1052.58466893817	0
1306	3116.900659056238	1052.597030376462	0
1307	3117.939315627842	1052.6229315129	0
1308	3116.900296984246	1052.59693800137	0
1309	3117.939299033676	1052.6228819365	0
1310	3117.939384410809	1052.622946718278	0
1311	3139.746199175638	1052.029854720458	0
1312	3139.747758744618	1052.029776545001	0
1313	3139.808617496859	1052.027214513842	0
1314	3139.806669908458	1052.027323808353	0
1315	3143.435950676889	1051.87964874663	0
1316	3143.422433423717	1051.877058884793	0
1317	3143.469409640193	1051.88507858506	0
1318	3143.469629588039	1051.885079734255	0
1319	3150.302179980159	1051.793561624405	0
1320	3150.264714152333	1051.801477188622	0
1321	3150.356410768459	1051.784271967241	0
1322	3150.326696170956	1051.790432211611	0
1323	3151.66868270999	1051.801487453565	0
1324	3150.449299697125	1051.759352975847	0
1325	3151.674711562374	1051.801372975455	0
1326	3151.668900683004	1051.801490086053	0
1327	3155.750693694726	1051.778237401615	0
1328	3155.750547259542	1051.778255545115	0
1329	3156.788462921408	1051.643208152694	0
1330	3155.742044515774	1051.773959070971	0
1331	3156.786333930264	1051.641738978006	0
1332	3156.788809982731	1051.643178608347	0
1333	3164.998546528889	1052.152951772161	0
1334	3164.999408494035	1052.152938755548	0
1335	3166.018613083663	1052.145556451104	0
1336	3164.998634831987	1052.152630446913	0
1337	3166.019663121657	1052.12232375166	0
1338	3166.018755424347	1052.145545557003	0
1339	3169.06212550719	1052.490592320637	0
1340	3169.062094212919	1052.490586894904	0
1341	3170.084436418218	1052.614945862839	0
1342	3169.062597585927	1052.490323355943	0
1343	3170.084709291605	1052.615011079963	0
1344	3170.08462812813	1052.615005910408	0
1345	3171.099207765474	1052.742934084148	0
1346	3171.098412806412	1052.742918865297	0
1347	3172.116894347063	1052.854671146257	0
1348	3171.099389639122	1052.74291818476	0
1349	3172.11639990869	1052.85462203976	0
1350	3172.116869821776	1052.854677287964	0
1351	3174.165563892343	1052.935706214394	0
1352	3174.165633869583	1052.935703384842	0
1353	3175.176197359282	1053.116015566133	0
1354	3174.168514749207	1052.92593904039	0
1355	3175.173779093633	1053.110211892099	0
1356	3175.176211905237	1053.115948448764	0
1357	3179.240597647574	1053.555206213946	0
1358	3179.240921258921	1053.554849815475	0
1359	3180.269944377828	1053.634397996533	0
1360	3179.240451404036	1053.555157975252	0
1361	3180.255137824613	1053.669632509503	0
1362	3180.255447570014	1053.669674550112	0
1363	3181.215155825843	1054.030016149894	0
1364	3180.255323924911	1053.669289407683	0
1365	3181.214833468775	1054.029781732075	0
1366	3181.215088977975	1054.029985208183	0
1367	3188.2425931602	1055.437552253575	0
1368	3188.242896624646	1055.437545799531	0
1369	3189.216716245369	1055.73012281072	0
1370	3188.242100970123	1055.43739793757	0
1371	3189.218458802314	1055.730215173317	0
1372	3189.216826302713	1055.730106716544	0
1373	3193.273536038612	1056.288087709945	0
1374	3193.273580237773	1056.288088960907	0
1375	3194.268461678901	1056.510147029496	0
1376	3193.273465678916	1056.287970007102	0
1377	3194.268535132541	1056.510165087735	0
1378	3194.268532953387	1056.510163939854	0
1379	3196.285121225452	1056.789568941247	0
1380	3196.278771476167	1056.814461308753	0
1381	3197.285402619772	1056.929148272054	0
1382	3196.285318895119	1056.789575259623	0
1383	3197.283553116682	1056.924271075264	0
1384	3197.285225074138	1056.929168254294	0
1385	3203.253379242479	1058.308417916134	0
1386	3203.25321216607	1058.308397910281	0
1387	3204.218814884312	1058.638643037922	0
1388	3203.253273598627	1058.308368755769	0
1389	3204.218506116297	1058.638551314082	0
1390	3204.218814883355	1058.638643037632	0
1391	3209.138191867393	1060.044594064039	0
1392	3209.138246032414	1060.044600486844	0
1393	3211.121620764069	1060.504956815892	0
1394	3209.137509851852	1060.044529152679	0
1395	3211.121572607739	1060.504912056042	0
1396	3211.121606816884	1060.504927698661	0
1397	3214.121491701829	1061.186038494635	0
1398	3214.120732626584	1061.186026440873	0
1399	3215.111745666461	1061.417618730943	0
1400	3214.120566005615	1061.185966422622	0
1401	3215.111746774779	1061.417672383818	0
1402	3215.11181835681	1061.417684112445	0
1403	3218.113447589402	1062.028943494893	0
1404	3218.113620831051	1062.029008304952	0
1405	3219.105343323071	1062.270524550967	0
1406	3218.112508727557	1062.028679191817	0
1407	3219.105117641891	1062.270414908943	0
1408	3219.105122447109	1062.270414637901	0
1409	3221.126889251619	1062.592210538201	0
1410	3221.126901216608	1062.590843469967	0
1411	3222.127871731635	1062.762253075868	0
1412	3221.126852088701	1062.592202683901	0
1413	3222.128636500059	1062.763014148548	0
1414	3222.128743532911	1062.763056070547	0
1415	3231.176883611048	1065.670013969245	0
1416	3231.176149743855	1065.669793074059	0
1417	3231.424040457583	1065.735340256079	0
1418	3231.426871771066	1065.735922487546	0
1419	3232.566820773003	1066.152745460225	0
1420	3232.565146182055	1066.152159834599	0
1421	3233.560921406251	1066.408280199784	0
1422	3232.568384530296	1066.153137297679	0
1423	3233.560205594193	1066.406577390591	0
1424	3233.560598133148	1066.40667700938	0
1425	3237.562214327308	1067.401456998393	0
1426	3237.561963780735	1067.401570739305	0
1427	3238.534979580756	1067.67480913135	0
1428	3237.561975230766	1067.401380503482	0
1429	3238.532834913382	1067.674190259052	0
1430	3238.535177903481	1067.674848120252	0
1431	3252.40641105392	1071.046638269019	0
1432	3252.406705527118	1071.046710001011	0
1433	3253.417357747127	1071.198107380797	0
1434	3252.407783151589	1071.046696940937	0
1435	3253.417656044712	1071.196650021679	0
1436	3253.417408661669	1071.198111638126	0
1437	3266.11446685265	1075.027745621472	0
1438	3266.114840543209	1075.02778484404	0
1439	3267.086850128218	1075.3488281614	0
1440	3267.083121326029	1075.364036140188	0
1441	3268.045096403659	1075.686606823529	0
1442	3266.11455981103	1075.02776926932	0
1443	3267.087841122822	1075.347351117933	0
1444	3267.087687189519	1075.347339843093	0
1445	3268.046788521703	1075.685744630336	0
1446	3268.0466914458	1075.685705288957	0
1447	3270.062377351353	1076.064643779839	0
1448	3270.062418791206	1076.06465310218	0
1449	3271.037222040859	1076.358910354654	0
1450	3270.062336705226	1076.064546106411	0
1451	3271.037760812673	1076.359146857271	0
1452	3271.037417004798	1076.358947995309	0
1453	3274.020284756498	1076.979288823527	0
1454	3274.019912970093	1076.979358796208	0
1455	3275.021971547708	1077.180484384533	0
1456	3274.020618002354	1076.979411384637	0
1457	3275.022323012408	1077.180490404168	0
1458	3275.021820502428	1077.180383434949	0
1459	3276.009008488357	1077.433370403115	0
1460	3276.010986060568	1077.436243283309	0
1461	3277.0423377374	1077.412766015554	0
1462	3276.008660622822	1077.433323079257	0
1463	3277.042267674608	1077.412907189513	0
1464	3277.042317195465	1077.412968512416	0
1465	3279.000184462857	1077.994145297256	0
1466	3278.999904275712	1077.994049200603	0
1467	3280.002945801295	1078.178854807576	0
1468	3278.999853646018	1077.994056415834	0
1469	3280.003051972616	1078.178822805659	0
1470	3280.003385694671	1078.178976503986	0
1471	3283.973607185555	1079.064069806704	0
1472	3283.973443886145	1079.06400584785	0
1473	3284.965288159457	1079.329406807692	0
1474	3283.974119328588	1079.064053978727	0
1475	3284.965656898773	1079.329280036915	0
1476	3284.965852993113	1079.32940973123	0
1477	3298.805605848115	1082.733658799269	0
1478	3298.805594925064	1082.733695542805	0
1479	3299.810739030295	1082.889189515629	0
1480	3298.80566865661	1082.733676268257	0
1481	3299.809237676109	1082.890254600559	0
1482	3299.811120396706	1082.889236404397	0
1483	3301.791430954038	1083.347360672166	0
1484	3299.81129532251	1082.888891743556	0
1485	3301.792190100715	1083.347447078829	0
1486	3301.792119990895	1083.347398382412	0
1487	3304.739253449928	1084.130621130899	0
1488	3304.739477582198	1084.130661040825	0
1489	3305.733253687309	1084.35337010326	0
1490	3304.739064443007	1084.130579959027	0
1491	3305.732834675234	1084.353294665146	0
1492	3305.73330005139	1084.353380493886	0
1493	3312.678095888601	1086.068767925834	0
1494	3312.678179174978	1086.068811295729	0
1495	3313.645524910155	1086.397429962596	0
1496	3312.679124129153	1086.068721899849	0
1497	3313.645217621371	1086.397341013559	0
1498	3313.645731689252	1086.39742301812	0
1499	3318.579872415763	1087.702419375177	0
1500	3318.578951655788	1087.702098599798	0
1501	3319.564066840561	1087.970969179774	0
1502	3318.579872416705	1087.702419375515	0
1503	3319.566263396651	1087.971358061789	0
1504	3319.56390303423	1087.970927354875	0
1505	3351.08387631389	1096.333844504145	0
1506	3351.083969511149	1096.333912825621	0
1507	3352.097608257084	1096.47508257905	0
1508	3351.083897457507	1096.333869809826	0
1509	3352.097700226536	1096.475113051196	0
1510	3352.097909177397	1096.475141332997	0
1511	3372.013363421501	1101.191653285063	0
1512	3372.013504533108	1101.191690027559	0
1513	3372.97802808282	1101.53446176544	0
1514	3372.013430489023	1101.191600073143	0
1515	3372.978210060042	1101.534571505362	0
1516	3372.978081118458	1101.534402651029	0
1517	3380.918430537697	1103.566469571977	0
1518	3380.91854400517	1103.566457137136	0
1519	3381.873295112558	1103.938782767601	0
1520	3380.918454077493	1103.566414083323	0
1521	3381.874026350369	1103.939747638819	0
1522	3381.873472635359	1103.938799343738	0
1523	3382.872351027353	1104.165895491998	0
1524	3381.867229364124	1103.950046503061	0
1525	3382.872663229596	1104.166837910162	0
1526	3382.872435330401	1104.165927313161	0
1527	3383.891487396824	1104.286758942359	0
1528	3382.872833382794	1104.16681879517	0
1529	3383.891492824671	1104.286697976545	0
1530	3383.891437682184	1104.286703109244	0
1531	3386.870025580937	1105.06635335137	0
1532	3386.87023567309	1105.066339543193	0
1533	3387.848478398353	1105.319703687482	0
1534	3386.869900121372	1105.06667009455	0
1535	3387.847880680052	1105.322465260039	0
1536	3387.848443724538	1105.319693608945	0
1537	3408.160173175391	1107.893621083168	0
1538	3408.160483005513	1107.893565378845	0
1539	3409.182389878507	1107.820683564146	0
1540	3408.160074290821	1107.893642159331	0
1541	3409.181845451059	1107.820634755223	0
1542	3409.182248851322	1107.820671480346	0
1543	3419.404579005168	1108.587869661299	0
1544	3419.404883772973	1108.587915892738	0
1545	3420.413659091847	1108.81547762603	0
1546	3419.404952426372	1108.587901760943	0
1547	3420.415217351445	1108.815481407993	0
1548	3420.415217352441	1108.815481407898	0
1549	3450.112148917908	1111.483674705964	0
1550	3450.112194641731	1111.483708511422	0
1551	3451.130170244865	1111.741557492553	0
1552	3450.112839894688	1111.483674967342	0
1553	3451.132459324344	1111.741600153723	0
1554	3451.130912972203	1111.741525866288	0
1555	3462.581937892111	1112.427474271183	0
1556	3462.59116583231	1112.429000763348	0
1557	3463.514189989869	1112.810411479512	0
1558	3462.54567701048	1112.439592549759	0
1559	3463.445415880454	1112.87981778606	0
1560	3463.512975842654	1112.810403333553	0
1561	3469.779738079172	1114.07169943941	0
1562	3469.774627114937	1114.071183685264	0
1563	3470.602446473457	1116.209657142538	0
1564	3470.602446472924	1116.209657141693	0
1565	3471.364322490654	1115.480098502994	0
1566	3470.60245579224	1116.209349108811	0
1567	3471.366519058841	1115.482302153058	0
1568	3471.365925377325	1115.482202163034	0
1569	3469.891186382585	1114.120706057481	0
1570	3469.891326586499	1114.120756365846	0
1571	3482.847742151163	1111.484784527269	0
1572	3482.849017694621	1111.484863989274	0
1573	3483.069124403968	1111.470598939659	0
1574	3483.0688047733	1111.470629556479	0
1575	3490.551759425386	1110.682036445527	0
1576	3490.551742934296	1110.682022929025	0
1577	3491.566042617524	1110.575070265973	0
1578	3490.550251718452	1110.682109612442	0
1579	3491.565221444873	1110.575068375562	0
1580	3491.566466472006	1110.574964396142	0
1581	3492.601116807943	1110.508510879746	0
1582	3492.601234702498	1110.50858487158	0
1583	3493.615364428557	1110.38609722699	0
1584	3492.603107819433	1110.509936367496	0
1585	3493.615029083146	1110.386433865204	0
1586	3493.616086213979	1110.386035344911	0
1587	3512.029232109143	1107.926606321682	0
1588	3512.029164464077	1107.926602940565	0
1589	3513.016010451907	1107.826166893698	0
1590	3512.029440167842	1107.927856124828	0
1591	3512.97957512979	1107.867722199123	0
1592	3513.015756750031	1107.826181240315	0
1593	3530.11781711982	1104.070473885998	0
1594	3530.117759004012	1104.070475488867	0
1595	3531.101643154531	1103.797560594092	0
1596	3530.119941845455	1104.070512168675	0
1597	3531.10216379606	1103.797659394796	0
1598	3531.101643155524	1103.797560593977	0
1599	3539.059524768275	1101.92075320353	0
1600	3539.059635379705	1101.920750491449	0
1601	3540.007522116428	1101.540661506216	0
1602	3539.059409271939	1101.920906606667	0
1603	3540.007956808848	1101.540672529653	0
1604	3540.007324245797	1101.540673059343	0
1605	3577.118274361744	1093.416393231875	0
1606	3577.118397032026	1093.416366358023	0
1607	3578.107322422803	1093.105569232642	0
1608	3577.116502242523	1093.416486997761	0
1609	3578.10694624628	1093.105406801632	0
1610	3578.107341019029	1093.105557621519	0
1611	3584.061742860683	1091.610122353373	0
1612	3584.061176878197	1091.61004233571	0
1613	3585.040461186712	1091.298992321028	0
1614	3584.06179190227	1091.610065442859	0
1615	3585.04215813035	1091.300716697994	0
1616	3585.042275014884	1091.30062204984	0
1617	3622.576161861617	1085.290952463502	0
1618	3622.576237649092	1085.290938734327	0
1619	3623.573073598429	1085.062435963982	0
1620	3622.57598462253	1085.290443759159	0
1621	3623.573089795997	1085.062375099534	0
1622	3623.573025718742	1085.062377554051	0
1623	3634.74298849731	1083.086911547406	0
1624	3634.741894647368	1083.086965909456	0
1625	3635.761033561082	1082.93840860373	0
1626	3634.743032484615	1083.086866449408	0
1627	3635.760965486845	1082.93840745928	0
1628	3635.761033560225	1082.938408603213	0
1629	3643.892000002666	1081.822368261209	0
1630	3643.892174316051	1081.822337130044	0
1631	3644.907118506501	1081.701891555266	0
1632	3643.89192986952	1081.808214717821	0
1633	3644.907679312656	1081.700190262466	0
1634	3644.907290032437	1081.701916246033	0
1635	3665.464337846851	1082.59192820131	0
1636	3665.464325249366	1082.591920837933	0
1637	3666.486298866384	1082.674885784755	0
1638	3665.463792768373	1082.591842644958	0
1639	3666.485466280737	1082.674874393805	0
1640	3666.486398625959	1082.674893200792	0
1641	3667.51049230604	1082.734561067944	0
1642	3667.510380347308	1082.734540238026	0
1643	3668.533947636985	1082.769169647665	0
1644	3667.51049230504	1082.73456106797	0
1645	3668.533427049214	1082.769200595034	0
1646	3668.533357296762	1082.769197914487	0
1647	3680.796590343047	1083.224718257544	0
1648	3680.796906991612	1083.224702372471	0
1649	3681.808464891537	1083.14343959158	0
1650	3680.796545032212	1083.224564347054	0
1651	3681.807986099804	1083.143403479962	0
1652	3681.808237131121	1083.143453230133	0
1653	3682.83477163735	1083.142357157826	0
1654	3681.806587947003	1083.139794180446	0
1655	3682.834256291175	1083.141597569728	0
1656	3682.835181764331	1083.142256468409	0
1657	3712.3059803474	1087.0710731861	0
1658	3712.306644229019	1087.071234525416	0
1659	3713.332557715638	1087.169602130875	0
1660	3712.305600751006	1087.071014797398	0
1661	3713.3362036848	1087.142967876077	0
1662	3713.333247350969	1087.16962973637	0
1663	3714.310370139001	1087.462908393164	0
1664	3713.336499526934	1087.142980362088	0
1665	3714.297974383784	1087.429723485437	0
1666	3714.310462583011	1087.46295803067	0
1667	3732.411330647682	1091.166343097017	0
1668	3732.411204524575	1091.16638658509	0
1669	3733.41151805035	1091.371091825942	0
1670	3732.411784501171	1091.166336182253	0
1671	3733.411817788063	1091.371123815081	0
1672	3733.411817687687	1091.371203221222	0
1673	3740.511193505937	1092.766108768059	0
1674	3740.520800713929	1092.773222857396	0
1675	3741.530150375527	1092.689196687394	0
1676	3740.512053445146	1092.766346098583	0
1677	3741.52880355898	1092.689853942975	0
1678	3741.528507666773	1092.689916728896	0
1679	3805.949119690249	1105.329584744836	0
1680	3805.950196706004	1105.329675423076	0
1681	3806.972565968603	1105.41104431776	0
1682	3805.949755002767	1105.331009609264	0
1683	3806.966206804023	1105.405050234618	0
1684	3806.973229187357	1105.411079132015	0
1685	3824.977439799281	1109.587912690231	0
1686	3824.978025911079	1109.587937088151	0
1687	3825.976970151261	1109.859126404645	0
1688	3824.9789905231	1109.587849651733	0
1689	3825.978783275526	1109.859372017176	0
1690	3825.977787486605	1109.859182801687	0
1691	3831.138044325201	1110.695837729856	0
1692	3831.134397606478	1110.694132651969	0
1693	3832.305396940064	1111.25682136518	0
1694	3831.137098589014	1110.692260678795	0
1695	3832.526714317107	1111.334143589582	0
1696	3832.519654671251	1111.330852388279	0
1697	3832.975844473321	1110.604573973637	0
1698	3832.975498898441	1110.605260986022	0
1699	3832.907688449425	1111.467565474622	0
1700	3832.97653579967	1110.608936564598	0
1701	3833.309547611153	1111.608327600397	0
1702	3832.903822687195	1111.465895716192	0
1703	3843.726119384408	1112.545987710415	0
1704	3843.725161115946	1112.545918580613	0
1705	3844.744278854542	1112.451899199171	0
1706	3843.755316701483	1112.595867475073	0
1707	3844.778369571085	1112.651350515816	0
1708	3844.744924039996	1112.451926152072	0
1709	3850.950331090904	1112.789385505374	0
1710	3850.950439662984	1112.789389130259	0
1711	3851.980274965329	1112.802578328289	0
1712	3850.949375375318	1112.789859631549	0
1713	3851.978459168009	1112.803832436072	0
1714	3851.980274931133	1112.802578324802	0
1715	3858.156467949625	1112.720487798317	0
1716	3858.157140670097	1112.720169601789	0
1717	3859.183233720757	1112.772277961511	0
1718	3858.156337506643	1112.720513372439	0
1719	3859.181728294869	1112.772387266161	0
1720	3859.183170087139	1112.772303630139	0
1721	3861.262806436158	1112.852102269257	0
1722	3861.263213151572	1112.852061588787	0
1723	3862.286329016849	1112.917070200765	0
1724	3861.263351415579	1112.852092669251	0
1725	3862.285692181447	1112.917010642132	0
1726	3862.286474358701	1112.917061052665	0
1727	3863.310779589894	1113.002910457996	0
1728	3863.311366300076	1113.002955776956	0
1729	3864.339190725997	1113.082570623194	0
1730	3863.312108415731	1113.00294912567	0
1731	3864.339350762913	1113.082607331724	0
1732	3864.339373857485	1113.082575495533	0
1733	3865.353899429267	1113.229404383149	0
1734	3865.353979125309	1113.229466911615	0
1735	3866.381480199629	1113.292710602227	0
1736	3865.349340325488	1113.246338782598	0
1737	3866.381546949181	1113.466070394296	0
1738	3866.379588390038	1113.292465329637	0
1739	3867.407279535498	1113.299511355681	0
1740	3866.382520470879	1113.292751314689	0
1741	3867.405998306321	1113.299590754306	0
1742	3867.406700521772	1113.299546647725	0
1743	3868.439116880051	1113.299508937092	0
1744	3868.439775139968	1113.299565543791	0
1745	3870.50416498306	1113.364277705288	0
1746	3868.439127574303	1113.299508481967	0
1747	3870.50414329893	1113.364228023878	0
1748	3870.503876321606	1113.364241169583	0
1749	3871.531559651802	1113.310181547372	0
1750	3871.531599768875	1113.310184218506	0
1751	3873.573992805673	1113.381497351169	0
1752	3871.531441568482	1113.328498663014	0
1753	3873.572334273945	1113.381825250517	0
1754	3873.574229993173	1113.381476197757	0
1755	3877.704688931529	1113.253702850132	0
1756	3877.70635075084	1113.252125222565	0
1757	3878.744873943302	1113.228205168105	0
1758	3877.705138766337	1113.253758092434	0
1759	3878.741524213625	1113.231658063237	0
1760	3878.747284355516	1113.228254502318	0
1761	3879.990523111103	1113.259328173624	0
1762	3879.988776492228	1113.260655082049	0
1763	3880.064361951026	1113.227765063879	0
1764	3879.926605715388	1113.286446459518	0
1765	3880.346610038795	1113.115784507675	0
1766	3879.998833692966	1113.25432768632	0
1767	3891.590167092991	1110.665733334115	0
1768	3891.589954931991	1110.665748486047	0
1769	3891.69808143174	1110.644495874927	0
1770	3891.698534021439	1110.644473795344	0
1771	3898.190953916845	1110.039403728936	0
1772	3898.190980939276	1110.039428572045	0
1773	3899.183320843645	1109.998012551718	0
1774	3898.19330330441	1110.040869014047	0
1775	3899.18300058064	1109.999938021124	0
1776	3899.183510510253	1109.997952916001	0
1777	3910.220218173458	1107.451453294205	0
1778	3910.220166608049	1107.451465351294	0
1779	3911.192621410498	1107.150162663494	0
1780	3910.220494028919	1107.451436096809	0
1781	3911.19225345828	1107.150235686885	0
1782	3911.192332391689	1107.150220523545	0
1783	3916.243991338049	1106.224019860991	0
1784	3916.244597458781	1106.223940539341	0
1785	3917.225391415711	1105.939600156955	0
1786	3916.249064004435	1106.227362645239	0
1787	3917.220871852036	1105.944219476699	0
1788	3917.225297848439	1105.93948370997	0
1789	3918.154106477907	1105.518323615102	0
1790	3918.153022442992	1105.518292574061	0
1791	3919.161293961633	1105.350941605416	0
1792	3918.155229079458	1105.518125476253	0
1793	3919.163616946184	1105.350448304679	0
1794	3919.162997667133	1105.350528189376	0
1795	3934.100797333829	1101.794595347234	0
1796	3934.100680353682	1101.79462169685	0
1797	3935.073648655869	1101.475682306989	0
1798	3934.103828228032	1101.79555137187	0
1799	3935.074244064867	1101.475611254191	0
1800	3935.073614880773	1101.475642206552	0
1801	3938.053319915597	1100.943369694317	0
1802	3938.053153602502	1100.943445093683	0
1803	3939.019995246642	1100.626379973022	0
1804	3938.053070943804	1100.94344426628	0
1805	3939.019770229248	1100.626393360936	0
1806	3939.019672791227	1100.626436184886	0
1807	3948.126559253374	1098.992598937258	0
1808	3948.126730871999	1098.992570751569	0
1809	3949.095209466409	1098.623773845685	0
1810	3948.136530978672	1099.006713872032	0
1811	3949.095203126978	1098.624060197942	0
1812	3949.095653677753	1098.623683985032	0
1813	3955.211017363046	1097.523383090294	0
1814	3955.211013120429	1097.523673363464	0
1815	3956.111350230085	1097.014878349309	0
1816	3955.210442614688	1097.52372279953	0
1817	3956.1113508284	1097.014853384764	0
1818	3956.111270447984	1097.014901148536	0
1819	3957.104108064008	1096.731181178205	0
1820	3957.104399046806	1096.730924942195	0
1821	3958.111785217608	1096.481371087274	0
1822	3957.105814183438	1096.730880867276	0
1823	3958.111046187778	1096.481534151549	0
1824	3958.111866840224	1096.481405430066	0
1825	3972.924376528281	1092.667501528671	0
1826	3972.925330210184	1092.667465194936	0
1827	3973.9209041406	1092.32350470553	0
1828	3972.912064683169	1092.670252985051	0
1829	3973.91696812595	1092.322936175596	0
1830	3973.917246983746	1092.32287942905	0
1831	3980.012205927757	1091.262367887957	0
1832	3980.012137905137	1091.262296692913	0
1833	3981.042896963197	1091.111820985945	0
1834	3980.011998837521	1091.262429690991	0
1835	3981.043169852099	1091.111792777472	0
1836	3981.042896964197	1091.11182098594	0
1837	3984.065756196654	1090.524944150097	0
1838	3984.065403949391	1090.52501521855	0
1839	3985.076412591201	1090.440466241153	0
1840	3984.062327879042	1090.525373642356	0
1841	3985.048500411229	1090.446167322734	0
1842	3985.07519148323	1090.440635862844	0
1843	3992.159456737979	1088.912795131777	0
1844	3992.160143715556	1088.912700549353	0
1845	3993.1582217437	1088.669138045159	0
1846	3992.150790238823	1088.913794526024	0
1847	3993.153906735697	1088.669814016569	0
1848	3993.157656763083	1088.669153301389	0
1849	4002.257582151317	1086.605922700996	0
1850	4002.25818901398	1086.605886178585	0
1851	4003.190347145682	1086.173574849429	0
1852	4002.299338632892	1086.642624539521	0
1853	4003.192980764011	1086.173643521889	0
1854	4003.190525671603	1086.173605234933	0
1855	4004.153522246586	1085.785489782834	0
1856	4004.142980776825	1085.786767911507	0
1857	4005.099730787633	1085.396464341645	0
1858	4004.153710038722	1085.78543529535	0
1859	4005.11209267042	1085.395982877203	0
1860	4005.112347950924	1085.395882734266	0
1861	4009.119841940017	1084.306378420514	0
1862	4009.121915586267	1084.305882334388	0
1863	4010.136520175009	1084.19223285564	0
1864	4009.12165316042	1084.305853305182	0
1865	4010.137854665815	1084.191993014101	0
1866	4010.138882541921	1084.191900872984	0
1867	4011.19865125859	1084.057752681442	0
1868	4011.199724020261	1084.057618717571	0
1869	4012.19763733131	1083.815446018002	0
1870	4011.19868035136	1084.057749666544	0
1871	4012.197031529491	1083.815522749753	0
1872	4012.197302524782	1083.815460636482	0
1873	4015.363516211277	1083.418040150199	0
1874	4015.36220498613	1083.416821928944	0
1875	4016.394645333565	1083.18968517352	0
1876	4015.363516211899	1083.418040150981	0
1877	4016.422796857795	1083.184226216981	0
1878	4016.396527890469	1083.189455186058	0
1879	4019.502411040933	1082.775121605703	0
1880	4019.500374222323	1082.775143014848	0
1881	4020.534638458343	1082.502365904006	0
1882	4019.503414659947	1082.774980442367	0
1883	4020.534286962225	1082.502178536122	0
1884	4020.533983652338	1082.502495682983	0
1885	4021.583499338087	1082.373225180599	0
1886	4021.583755500955	1082.373230696561	0
1887	4022.65749755054	1082.307558367492	0
1888	4021.584322555633	1082.373187216263	0
1889	4022.656379570435	1082.307781062389	0
1890	4022.657454993338	1082.307620665634	0
1891	4037.720441449545	1080.683542521577	0
1892	4037.720778876357	1080.683648116719	0
1893	4038.691742613923	1080.187408226859	0
1894	4037.778352710501	1080.675820886461	0
1895	4038.700582927619	1080.179380455425	0
1896	4038.692041972287	1080.187220650268	0
1897	4052.118853529276	1082.970512126823	0
1898	4052.119990951053	1082.97072483059	0
1899	4052.501310443806	1082.846550650616	0
1900	4052.501745684069	1082.845112408527	0
1901	4060.591287839788	1077.539093581064	0
1902	4060.591287839723	1077.539093580066	0
1903	4061.625685486053	1077.381655902851	0
1904	4060.585159839525	1077.539579303349	0
1905	4061.621665342021	1077.381891179456	0
1906	4061.62709493449	1077.381847472408	0
1907	4062.721362048118	1077.15538805475	0
1908	4062.7233341562	1077.150420914637	0
1909	4063.695625862637	1076.81639886401	0
1910	4062.722248715656	1077.154165728756	0
1911	4063.759485607101	1076.811909827534	0
1912	4063.758554414959	1076.812141328901	0
1913	4073.050779594757	1074.714175390246	0
1914	4073.0494987972	1074.714237822869	0
1915	4074.105390809731	1074.544078898098	0
1916	4073.035943866014	1074.71496094902	0
1917	4074.100369638496	1074.544753790313	0
1918	4074.103419143364	1074.544431705221	0
1919	4085.424242070987	1073.086848595962	0
1920	4085.388732627034	1073.042910446997	0
1921	4085.55445466068	1073.318143776265	0
1922	4085.422014278231	1073.087270042122	0
1923	4088.628771437051	1072.294290331883	0
1924	4088.630503601165	1072.293698319358	0
1925	4089.656230219517	1071.995342267847	0
1926	4088.629262842719	1072.294232251546	0
1927	4089.655906570387	1071.99500428644	0
1928	4089.655773808128	1071.995370405791	0
1929	4092.687426993859	1071.270326765825	0
1930	4092.681861229426	1071.271015387013	0
1931	4094.642250750097	1070.537368473646	0
1932	4092.68751900458	1071.270251326491	0
1933	4094.641794174469	1070.537573565171	0
1934	4094.641678038355	1070.537629493717	0
1935	4107.01557335473	1068.236567882621	0
1936	4107.014943459227	1068.236558823229	0
1937	4108.042015446686	1068.062602259565	0
1938	4107.018037238387	1068.236006241331	0
1939	4108.046059499995	1068.062125555848	0
1940	4108.045352193277	1068.062201871967	0
1941	4120.613828360585	1065.960132712936	0
1942	4120.614093526565	1065.960084876192	0
1943	4121.646114537511	1065.747503639443	0
1944	4120.619462629417	1065.958410313643	0
1945	4121.647160516758	1065.746002037748	0
1946	4121.645751718717	1065.747665946558	0
1947	4122.779498776167	1065.572718688704	0
1948	4122.777335833733	1065.563588550932	0
1949	4122.871583612554	1065.603812111381	0
1950	4122.782636132838	1065.572373239227	0
1951	4139.094999915848	1062.93877230228	0
1952	4139.108756137739	1062.949271204059	0
1953	4140.169823786655	1062.756696650558	0
1954	4139.094593955846	1062.93879188418	0
1955	4140.167881237398	1062.755584292541	0
1956	4140.170420164728	1062.756647933171	0
1957	4142.270591877097	1062.747992970299	0
1958	4142.27097315311	1062.748062876877	0
1959	4143.305094598655	1062.734706266766	0
1960	4142.279372260586	1062.745572889195	0
1961	4143.306843331608	1062.734106116747	0
1962	4143.305303428416	1062.734791522479	0
1963	4145.393407949163	1062.794104518758	0
1964	4145.391160763878	1062.794312110803	0
1965	4146.442282863622	1062.72441675039	0
1966	4145.393474675483	1062.794008850586	0
1967	4146.462215160488	1062.713861197507	0
1968	4146.44038547838	1062.724526632054	0
1969	4147.508324469166	1062.66512427958	0
1970	4146.463483432957	1062.713799295283	0
1971	4147.509055908801	1062.665077024833	0
1972	4147.507871428764	1062.665149596648	0
1973	4148.531976470937	1062.538630490778	0
1974	4148.530578357781	1062.539548900352	0
1975	4149.58213379373	1062.466851806491	0
1976	4148.531805755956	1062.53861454558	0
1977	4149.580562703248	1062.462671926286	0
1978	4149.581075320383	1062.462854228402	0
1979	4152.741772265017	1062.44333286806	0
1980	4152.742962993002	1062.443390186712	0
1981	4153.760638872128	1062.435282079354	0
1982	4152.743271785626	1062.44308530299	0
1983	4153.763442630559	1062.434718758202	0
1984	4153.761942828166	1062.435134678805	0
1985	4173.728111933176	1061.176418524899	0
1986	4173.728382057191	1061.176430964529	0
1987	4174.771058029969	1061.040647152845	0
1988	4173.725598916081	1061.176456121448	0
1989	4174.771128689659	1061.040453178334	0
1990	4174.77123925561	1061.040518657396	0
1991	4188.81653245602	1059.206373030147	0
1992	4188.809549627374	1059.254905710364	0
1993	4188.578349415702	1059.043529309743	0
1994	4188.732704996361	1059.148585495881	0
1995	4188.899496333564	1059.26137325846	0
1996	4188.817068032809	1059.206323252403	0
1997	4194.711852448712	1060.40232991065	0
1998	4194.604002944822	1060.414830807769	0
1999	4194.771973596758	1060.353809460582	0
2000	4194.713273759066	1060.40078829145	0
2001	4195.852772222638	1060.624159079041	0
2002	4194.699977967432	1060.409047439761	0
2003	4195.849645986816	1060.623717544206	0
2004	4195.8499922176	1060.623751560123	0
2005	4197.014134159821	1060.746360815839	0
2006	4197.015042205328	1060.747076328157	0
2007	4198.238117265042	1060.866086250176	0
2008	4197.014195159255	1060.746487993523	0
2009	4198.091601944925	1060.730508745516	0
2010	4198.24418680211	1060.86644895734	0
2011	4199.333288152087	1060.805737083322	0
2012	4198.091601945924	1060.730508745484	0
2013	4199.331274201698	1060.805041077452	0
2014	4199.335302468444	1060.806053009626	0
2015	4200.671933343107	1060.972000006612	0
2016	4200.61559661045	1060.981035970878	0
2017	4201.988207481492	1060.995847658279	0
2018	4200.672549909489	1060.972441439632	0
2019	4202.051026738436	1061.008135780988	0
2020	4202.049103323043	1061.007108050641	0
2021	4204.878663674486	1060.752358175836	0
2022	4204.878212683022	1060.753007382021	0
2023	4209.357215113844	1058.763163158591	0
2024	4209.355438774429	1058.762824859743	0
2025	4208.28220388516	1059.529446119209	0
2026	4209.349254640258	1058.765460791433	0
2027	4208.318919599507	1059.515723212269	0
2028	4208.316765904127	1059.51763673097	0
2029	4205.427928613621	1060.65986996656	0
2030	4205.012889615545	1060.733611975059	0
2031	4206.838087409476	1061.222004437376	0
2032	4205.712811080017	1060.61523015286	0
2033	4206.902803637165	1061.215050921335	0
2034	4206.838514987156	1061.222087374212	0
2035	4207.664602914783	1062.031835453091	0
2036	4207.665635507889	1062.032440828559	0
2037	4208.872680619205	1062.481630518271	0
2038	4207.677041510358	1062.033193290073	0
2039	4208.872710426537	1062.480751083486	0
2040	4208.870185418463	1062.480085040364	0
2041	4210.035230326856	1062.993784456281	0
2042	4210.040211823673	1062.994802707724	0
2043	4210.101544809072	1063.015286918482	0
2044	4210.065920806481	1063.004651050329	0
2045	4217.560052387526	1065.39365973572	0
2046	4217.559364649363	1065.393657050733	0
2047	4218.628722015675	1065.656211442964	0
2048	4217.55623521468	1065.393138544788	0
2049	4218.551102784379	1065.621715279216	0
2050	4218.632496794962	1065.657232047709	0
2051	4230.451775047211	1068.843457097313	0
2052	4230.374378706871	1068.823076243945	0
2053	4230.642799337035	1068.894778123442	0
2054	4230.45468587971	1068.844184183164	0
2055	4231.884905650809	1069.124490779162	0
2056	4230.640244139485	1068.894121829108	0
2057	4231.899311806877	1069.127152742267	0
2058	4231.887581083264	1069.125052460489	0
2059	4236.017641821109	1070.027553178542	0
2060	4236.015864005553	1070.027888890597	0
2061	4237.059084547799	1070.287556048418	0
2062	4236.018015324562	1070.027634550897	0
2063	4237.065458205036	1070.288038855636	0
2064	4237.060515050291	1070.287964895507	0
2065	4249.389914815352	1072.960602372078	0
2066	4249.391865740688	1072.960556423767	0
2067	4251.289653326729	1073.850335675205	0
2068	4249.392813460382	1072.960320695514	0
2069	4251.293275606864	1073.850509539549	0
2070	4251.289868000679	1073.85039788582	0
2071	4274.172097288826	1080.580519152594	0
2072	4274.173018702739	1080.58095398118	0
2073	4275.143428714023	1080.945369677173	0
2074	4274.171168393123	1080.580572898499	0
2075	4275.145537284897	1080.942558792666	0
2076	4275.14553728589	1080.942558792779	0
2077	4284.482425533795	1082.460250414081	0
2078	4284.482154633209	1082.460292298713	0
2079	4285.365729247715	1082.98194786517	0
2080	4284.482747666211	1082.460211950938	0
2081	4285.368788164185	1082.982205251358	0
2082	4285.365771502415	1082.981940166529	0
2083	4298.740347515909	1085.191633928431	0
2084	4298.74067340522	1085.191736106146	0
2085	4299.688388551273	1085.602105940876	0
2086	4298.742414248577	1085.191618054806	0
2087	4299.688722652192	1085.601919884788	0
2088	4299.689232488953	1085.601976691224	0
2089	4301.922757347198	1086.398278345716	0
2090	4301.922483596687	1086.39821622595	0
2091	4302.224285364195	1086.447393308053	0
2092	4302.227738338463	1086.447909027188	0
2093	4329.24683383813	1089.961162321534	0
2094	4329.247096033354	1089.96118212441	0
2095	4330.306741411625	1089.980153350071	0
2096	4329.244953120546	1089.957030811094	0
2097	4330.309624479546	1089.975118666674	0
2098	4330.306755609962	1089.98019831544	0
2099	4336.638743508123	1091.211941369054	0
2100	4336.642603357027	1091.212346515545	0
2101	4336.667427799144	1091.217217308149	0
2102	4336.669867755671	1091.217628220805	0
2103	4351.694453847659	1095.31276664954	0
2104	4351.694371477646	1095.312727082634	0
2105	4352.671954445093	1095.598609160041	0
2106	4351.694392842104	1095.312925339425	0
2107	4352.672472888064	1095.598560450228	0
2108	4352.673160437531	1095.598668609383	0
2109	4354.692950953298	1096.054270280335	0
2110	4354.694833408714	1096.054817141744	0
2111	4355.716805198887	1096.228870705136	0
2112	4354.694176128631	1096.054492264245	0
2113	4355.715771829425	1096.228774463789	0
2114	4355.715635038765	1096.228732969711	0
2115	4358.76850891003	1096.69940801616	0
2116	4358.766408517309	1096.69918267119	0
2117	4359.772283397934	1096.92423993405	0
2118	4358.768413658651	1096.6993181112	0
2119	4359.77537031017	1096.924504053864	0
2120	4359.775702670027	1096.924519071406	0
2121	4360.805774462271	1097.080555254601	0
2122	4360.80588016894	1097.08053382254	0
2123	4361.8149134597	1097.270832673718	0
2124	4360.809124459191	1097.080589430162	0
2125	4361.816806542699	1097.27068467362	0
2126	4361.809515744494	1097.271542616925	0
2127	4362.825803630885	1097.506300526732	0
2128	4361.816868736778	1097.270680569116	0
2129	4362.826537418615	1097.506424754159	0
2130	4362.825741295475	1097.506293075659	0
2131	4376.152257446846	1099.182352105649	0
2132	4376.152899372891	1099.182429496252	0
2133	4377.177824543563	1099.430167912369	0
2134	4376.151365875237	1099.180492105309	0
2135	4377.18271126008	1099.428547667876	0
2136	4377.177993865815	1099.430130369586	0
2137	4381.501807983396	1100.471576563871	0
2138	4381.501662399595	1100.471520784525	0
2139	4381.590494900479	1100.507419988736	0
2140	4381.530533653447	1100.483502945804	0
2141	4401.10600113702	1107.861196300631	0
2142	4401.102387803425	1107.860854352051	0
2143	4401.975109988901	1108.427409702878	0
2144	4401.106068954598	1107.861230023428	0
2145	4401.980868202158	1108.426106613623	0
2146	4401.974588328808	1108.427284230632	0
2147	4402.852381781419	1108.976566014609	0
2148	4401.980977671081	1108.426097575133	0
2149	4402.85586184047	1108.977037508909	0
2150	4402.855475552683	1108.976843783672	0
2151	4414.896475034419	1112.141667885743	0
2152	4414.896497046335	1112.141669337582	0
2153	4415.824577505095	1112.601312189412	0
2154	4414.899036194412	1112.141254921195	0
2155	4415.824547403782	1112.601382532691	0
2156	4415.824305277933	1112.601337430013	0
2157	4424.850605538611	1114.853538128066	0
2158	4424.851293319948	1114.853689591823	0
2159	4425.67693874974	1115.47684892327	0
2160	4424.852084126765	1114.853650651811	0
2161	4425.678249406781	1115.476811947208	0
2162	4425.676827859553	1115.476874571605	0
2163	4427.629145610357	1116.159440891942	0
2164	4427.62868105493	1116.159553808794	0
2165	4428.623223059425	1116.434379651535	0
2166	4427.631968064839	1116.159340214334	0
2167	4428.626258248126	1116.434280380811	0
2168	4428.625306022366	1116.434356433039	0
2169	4429.594569702333	1116.79553390969	0
2170	4429.594238657665	1116.795580765037	0
2171	4430.58944847147	1117.078822391805	0
2172	4429.593458451281	1116.795381042873	0
2173	4430.588958353593	1117.078822551984	0
2174	4430.589405421691	1117.078712378898	0
2175	4432.483508638597	1117.887301298685	0
2176	4432.483610020771	1117.887336193692	0
2177	4433.458493665207	1118.204917950253	0
2178	4432.440141913429	1117.924081846697	0
2179	4433.45369167621	1118.207510633384	0
2180	4433.458311283066	1118.204780039339	0
2181	4440.608197605596	1119.33907031776	0
2182	4440.608332105893	1119.338994007639	0
2183	4441.606654129938	1119.631564155919	0
2184	4440.609406425074	1119.338916982054	0
2185	4441.609572074875	1119.630754714041	0
2186	4441.606566008475	1119.631583757287	0
2187	4442.60745335098	1119.938409667343	0
2188	4441.625550053161	1119.624466484718	0
2189	4442.611513421302	1119.93918560754	0
2190	4442.607965698652	1119.938427312528	0
2191	4447.57105637014	1121.38602140874	0
2192	4447.570021391122	1121.386697835269	0
2193	4448.556988454056	1121.662599110105	0
2194	4447.571134292968	1121.386033488347	0
2195	4448.572712748707	1121.661370880963	0
2196	4448.557403118087	1121.662672431896	0
2197	4449.5723493258	1121.895702019442	0
2198	4448.572923984572	1121.661454218501	0
2199	4449.57228486118	1121.895694745817	0
2200	4449.571621119042	1121.895752388508	0
2201	4457.679119556269	1123.48263313896	0
2202	4457.679491709036	1123.482689813959	0
2203	4458.622957295126	1123.861956942221	0
2204	4457.680079264151	1123.482460144897	0
2205	4458.630822466609	1123.861881503291	0
2206	4458.62332514191	1123.861971836631	0
2207	4460.624142120085	1124.367333929515	0
2208	4460.623994732452	1124.36743118275	0
2209	4462.616534160427	1124.955047404408	0
2210	4460.624193726402	1124.367367813666	0
2211	4462.617303974342	1124.956070719728	0
2212	4462.616310710181	1124.955106775482	0
2213	4463.596462711714	1125.306554881034	0
2214	4462.644258291683	1124.938914257399	0
2215	4463.5973988881	1125.306852415189	0
2216	4463.596865798022	1125.306875916967	0
2217	4481.694421569396	1129.077574488845	0
2218	4481.694230906163	1129.077586928097	0
2219	4482.669108174057	1129.3937405135	0
2220	4481.695074328786	1129.077460639184	0
2221	4482.69240746097	1129.372674025807	0
2222	4482.683352992861	1129.37997640311	0
2223	4483.658461986438	1129.756759390514	0
2224	4482.692415311422	1129.372703459251	0
2225	4483.65830580367	1129.75672515513	0
2226	4482.70165614393	1129.362191505669	0
2227	4483.66482902803	1129.757428797197	0
2228	4483.658227772989	1129.75676576332	0
2229	4488.75336700857	1130.710369662885	0
2230	4488.753483448936	1130.710487029286	0
2231	4489.730386874872	1131.019908740095	0
2232	4488.757626630056	1130.710635067062	0
2233	4489.730982567072	1131.01973518925	0
2234	4489.730364078912	1131.019907030615	0
2235	4490.746920364229	1131.250545761654	0
2236	4490.74714712099	1131.251004183138	0
2237	4491.748115142386	1131.50651523578	0
2238	4490.747109147746	1131.250790919843	0
2239	4491.75181947265	1131.505598250754	0
2240	4491.748305935338	1131.506431176874	0
2241	4493.703798003352	1132.182964405681	0
2242	4493.702719385209	1132.18284605094	0
2243	4494.700390607781	1132.476338982311	0
2244	4493.703648715763	1132.183010105272	0
2245	4494.701343702945	1132.47638500911	0
2246	4494.701538209549	1132.476381051868	0
2247	4495.676425751938	1132.827723801231	0
2248	4495.676425750941	1132.827723801319	0
2249	4496.680178060483	1133.078865735662	0
2250	4495.677696678837	1132.827601598597	0
2251	4496.683167633334	1133.078611529966	0
2252	4496.683167634334	1133.07861152995	0
2253	4498.704284144168	1133.552414832647	0
2254	4498.704390182186	1133.552474321574	0
2255	4499.66805904021	1133.892211049139	0
2256	4498.704356847044	1133.552494579643	0
2257	4499.668496078249	1133.892355426624	0
2258	4499.6684887008	1133.892304044598	0
2259	4501.733797763175	1134.195698683406	0
2260	4501.733567124729	1134.195888392795	0
2261	4502.767868631187	1134.346700155152	0
2262	4501.736525575	1134.196156591174	0
2263	4502.771099179306	1134.34684261576	0
2264	4502.768098237917	1134.346715994454	0
2265	4508.929274668926	1134.98373353821	0
2266	4508.928307034739	1134.983862709649	0
2267	4509.940278005847	1135.127565869061	0
2268	4508.93012619291	1134.983690452097	0
2269	4509.940066838867	1135.127548930452	0
2270	4509.938784960173	1135.127644754211	0
2271	4519.076899469585	1136.717819977606	0
2272	4519.077242854844	1136.71782115853	0
2273	4520.039343166278	1137.043528891	0
2274	4519.063471509139	1136.721352869803	0
2275	4520.016811444991	1137.04834694608	0
2276	4520.03957627456	1137.043620035809	0
2277	4525.292142210831	1137.345766236981	0
2278	4525.287513620699	1137.345484684561	0
2279	4526.313630880711	1137.544176716541	0
2280	4525.292139322445	1137.345765756509	0
2281	4526.315685062058	1137.544362575162	0
2282	4526.315804593661	1137.544289410835	0
2283	4529.409901270002	1137.973914642439	0
2284	4529.409789122258	1137.973960821998	0
2285	4530.429191399749	1138.095081406886	0
2286	4529.409907675234	1137.973919030264	0
2287	4530.431633177423	1138.095266173512	0
2288	4530.42875885937	1138.095284340907	0
2289	4535.510568565509	1138.988032676753	0
2290	4535.510404450939	1138.988050519583	0
2291	4536.522295940988	1139.264122534114	0
2292	4535.511075242131	1138.987963463294	0
2293	4536.524275397349	1139.264050435332	0
2294	4536.522431431967	1139.264158343814	0
2295	4538.532535868016	1139.797119065195	0
2296	4538.530689117716	1139.797003521357	0
2297	4539.559240186156	1139.924250904594	0
2298	4538.532079978958	1139.797745854784	0
2299	4539.553735075415	1139.926399499842	0
2300	4539.561162112641	1139.924539977831	0
2301	4540.590491776618	1140.067653478369	0
2302	4539.559658994927	1139.924374226898	0
2303	4540.590263024638	1140.067656502071	0
2304	4540.590390877192	1140.067654683362	0
2305	4552.946399539075	1141.619064465096	0
2306	4552.946714999262	1141.619093331303	0
2307	4553.975523147525	1141.727760643461	0
2308	4552.940222808609	1141.626461563988	0
2309	4553.966744581217	1141.736738799005	0
2310	4553.974737084026	1141.727782168065	0
2311	4556.062639926944	1141.788379348115	0
2312	4556.055468656407	1141.788797858727	0
2313	4557.094005163653	1141.786103541034	0
2314	4556.063240527481	1141.788560140088	0
2315	4557.09498503281	1141.78600084949	0
2316	4557.095655990429	1141.785998493442	0
2317	4562.319678380932	1142.277015927768	0
2318	4562.319425921192	1142.277042994069	0
2319	4563.353589078218	1142.23268282909	0
2320	4562.320701785739	1142.276967733231	0
2321	4563.363800787646	1142.231725962897	0
2322	4563.353883076543	1142.232637630876	0
2323	4566.457465172631	1142.741490929445	0
2324	4566.457564804878	1142.741510300226	0
2325	4567.468135158319	1142.815937734377	0
2326	4566.482357927369	1142.762928509885	0
2327	4567.483126217705	1142.813358750045	0
2328	4567.468836877068	1142.815901397171	0
2329	4571.626908417255	1143.464537908264	0
2330	4571.6287786509	1143.46469973504	0
2331	4572.665514294171	1143.750764775832	0
2332	4571.679484414527	1143.448986378757	0
2333	4572.669144767096	1143.75204411037	0
2334	4572.664801436112	1143.750793989311	0
2335	4577.831545936179	1144.414185974441	0
2336	4577.831678988696	1144.414199349055	0
2337	4578.802973849944	1144.708127157225	0
2338	4577.832854354563	1144.414375478442	0
2339	4578.82417105738	1144.70455424524	0
2340	4577.839226717047	1144.414548788473	0
2341	4580.943724290683	1144.920647787181	0
2342	4578.802720709759	1144.708153994996	0
2343	4580.933328865527	1144.915450272139	0
2344	4580.933595795709	1144.915407215956	0
2345	4586.124713857127	1145.223081658505	0
2346	4586.124847414455	1145.223418611264	0
2347	4587.170423692392	1145.175053043346	0
2348	4586.135565198472	1145.222182288662	0
2349	4587.171821938267	1145.175050978483	0
2350	4587.170454304936	1145.174973191648	0
2351	4599.808366820117	1146.12907184935	0
2352	4599.807727464932	1146.129224352811	0
2353	4600.805090376876	1146.441790285955	0
2354	4599.811850747784	1146.129027218462	0
2355	4600.806710310431	1146.441956815678	0
2356	4600.806319997234	1146.44196786127	0
2357	4606.196914739272	1146.610534842865	0
2358	4606.195542686154	1146.610769453992	0
2359	4607.248944271358	1146.67799987918	0
2360	4606.197701949224	1146.610677800085	0
2361	4607.253050485524	1146.677845680948	0
2362	4607.253050486188	1146.677845681696	0
2363	4612.673366484067	1146.568867245078	0
2364	4612.673914763811	1146.568968211708	0
2365	4613.717041300613	1146.298524804359	0
2366	4612.672358172867	1146.569470205524	0
2367	4613.724767529458	1146.297300689474	0
2368	4613.719836686786	1146.298310602122	0
2369	4643.526824827512	1148.118240294066	0
2370	4643.524769677961	1148.118635690303	0
2371	4643.974792679528	1148.256630101009	0
2372	4643.217932862955	1148.368506086342	0
2373	4645.136661856953	1148.279959000932	0
2374	4643.976277527388	1148.255072240249	0
2375	4646.466604569991	1147.382714859712	0
2376	4646.467182641069	1147.382267250757	0
2377	4647.576983871255	1146.956113037578	0
2378	4646.473656129412	1147.382941577147	0
2379	4647.598418367666	1146.954046239724	0
2380	4647.58067432869	1146.955677847849	0
2381	4665.824137867315	1142.842701958272	0
2382	4665.824601114786	1142.842657020177	0
2383	4666.813817557384	1142.39201084533	0
2384	4665.825546142871	1142.843043035434	0
2385	4666.816675939674	1142.391143159452	0
2386	4666.815681332012	1142.391767507297	0
2387	4669.991651539871	1141.684922682947	0
2388	4669.992279292242	1141.684568910922	0
2389	4671.030812574055	1141.374279641069	0
2390	4669.995712251573	1141.684739251901	0
2391	4671.038354580912	1141.373720041005	0
2392	4671.036688553413	1141.373921492627	0
2393	4672.062772344129	1141.198826177054	0
2394	4672.050525039105	1141.199108314008	0
2395	4673.071815333548	1140.932404231114	0
2396	4672.063593860719	1141.19892519276	0
2397	4673.077595452717	1140.931931313069	0
2398	4673.077654426802	1140.931923452661	0
2399	4675.168497439773	1140.562437267939	0
2400	4675.169645849031	1140.562129835177	0
2401	4676.225297042187	1140.341924729549	0
2402	4675.166941435649	1140.568505217105	0
2403	4676.232034699602	1140.341643241083	0
2404	4676.229010672143	1140.341376921218	0
2405	4678.293868878238	1139.832820052263	0
2406	4678.293872499288	1139.832809154687	0
2407	4679.335885707076	1139.508592623044	0
2408	4678.299082202927	1139.832299655539	0
2409	4679.336832689522	1139.508409389288	0
2410	4679.3360679215	1139.508497371982	0
2411	4680.402265763302	1139.305389768605	0
2412	4680.403586313655	1139.305169050365	0
2413	4681.414611405998	1138.975987308964	0
2414	4680.412364585323	1139.303572574933	0
2415	4681.417484597654	1138.97517120132	0
2416	4681.413257585236	1138.976054620866	0
2417	4695.035828727987	1137.516963306011	0
2418	4695.035742153154	1137.516959741097	0
2419	4696.032442907733	1137.222360851681	0
2420	4696.265921525875	1137.209037036475	0
2421	4697.109821982236	1137.035496595252	0
2422	4695.034248563942	1137.537071510152	0
2423	4696.083164380586	1137.290548867571	0
2424	4696.032107117172	1137.222366738526	0
2425	4697.09844611069	1137.034414368396	0
2426	4697.112237678548	1137.011922316687	0
2427	4698.091556675233	1136.691033861482	0
2428	4697.108728758956	1137.035505991117	0
2429	4698.090708877633	1136.690383977361	0
2430	4698.091705837983	1136.690985335341	0
2431	4700.107601399026	1136.121545678367	0
2432	4700.10849826572	1136.117589343335	0
2433	4701.085854864173	1135.743824398283	0
2434	4700.107994779188	1136.121915209091	0
2435	4701.102934201775	1135.749940371792	0
2436	4701.085631389875	1135.743751584894	0
2437	4718.582695257574	1132.091337244153	0
2438	4718.581928176294	1132.091289340597	0
2439	4719.56111488545	1131.733780666431	0
2440	4719.565299800879	1131.732787158458	0
2441	4720.49456328542	1131.309987271487	0
2442	4718.589523840387	1132.096761797929	0
2443	4719.558452017572	1131.738882880436	0
2444	4719.561680575513	1131.733658204387	0
2445	4720.49231772955	1131.309493396758	0
2446	4720.493258001089	1131.309347824432	0
2447	4725.212003773875	1129.033420542857	0
2448	4725.209768838101	1129.033598334024	0
2449	4726.153924626695	1128.576450316211	0
2450	4725.211767048567	1129.033573928117	0
2451	4726.157648883581	1128.57591547774	0
2452	4726.155359629479	1128.576217611681	0
2453	4733.143892978743	1125.766425493457	0
2454	4733.143162237887	1125.766662196351	0
2455	4733.2178745417	1125.720114172855	0
2456	4733.218151268319	1125.720071075638	0
2457	4746.876088766058	1122.773499784502	0
2458	4746.876522146646	1122.773294685682	0
2459	4747.792725135757	1122.286091198673	0
2460	4746.877520305956	1122.773211128985	0
2461	4747.795089098249	1122.285841205033	0
2462	4747.79269978208	1122.286097877036	0
2463	4749.820196741917	1121.712011565747	0
2464	4749.820078150266	1121.711968965064	0
2465	4750.837519655281	1121.49401263133	0
2466	4749.820070595341	1121.711262596615	0
2467	4750.833828240766	1121.510785575401	0
2468	4750.832537515798	1121.510824659593	0
2469	4751.799601438473	1121.113683342096	0
2470	4750.834033672856	1121.494929743771	0
2471	4751.799649122179	1121.113611713575	0
2472	4751.799759584188	1121.113754823425	0
2473	4789.86086096393	1114.177956370014	0
2474	4789.859107847951	1114.178026986168	0
2475	4790.821664171443	1113.799750070519	0
2476	4789.860675000159	1114.17802324537	0
2477	4790.824573442168	1113.799520447895	0
2478	4790.825165274397	1113.799384762508	0
2479	4791.78873666892	1113.325652604063	0
2480	4790.892775589039	1113.83236092636	0
2481	4791.789194949362	1113.325453645198	0
2482	4791.788192484922	1113.325771769076	0
2483	4794.812012227303	1112.521961151514	0
2484	4794.813896832872	1112.521561015481	0
2485	4796.778887500946	1111.869102789705	0
2486	4794.805030257982	1112.529549373691	0
2487	4796.77871035452	1111.869228600395	0
2488	4796.778817834988	1111.869144823178	0
2489	4808.992024862107	1109.333281697556	0
2490	4808.991385505882	1109.333342534153	0
2491	4810.002115838331	1109.053071779066	0
2492	4809.008151842478	1109.332031155511	0
2493	4810.00872788361	1109.05574233666	0
2494	4810.003688014699	1109.052795363603	0
2495	4810.920339762417	1108.597475846107	0
2496	4810.01552956059	1109.061369154048	0
2497	4810.925958717349	1108.609890103591	0
2498	4810.926789777806	1108.609739692743	0
2499	4816.820413809385	1106.519525510336	0
2500	4816.819795901157	1106.519549171786	0
2501	4817.747804908982	1106.045362265994	0
2502	4816.824446866838	1106.519106713332	0
2503	4817.753268250724	1106.045138611702	0
2504	4817.75252061216	1106.045315415463	0
2505	4821.848189487095	1105.091304246271	0
2506	4821.846123629477	1105.091486646358	0
2507	4822.873082377907	1104.833617158233	0
2508	4821.870878704504	1105.111103971909	0
2509	4822.875931216178	1104.833414775441	0
2510	4822.87542217893	1104.833430720916	0
2511	4826.875485705837	1103.751074205664	0
2512	4826.875694590573	1103.750945717061	0
2513	4827.853608580393	1103.384531222871	0
2514	4826.877775369439	1103.751257523613	0
2515	4827.853984356961	1103.384666779166	0
2516	4827.853834517654	1103.384628499759	0
2517	4829.928335890052	1103.058275548796	0
2518	4829.929011747822	1103.058152843632	0
2519	4830.902863191981	1102.713901060067	0
2520	4829.929509738459	1103.058216632645	0
2521	4830.904297707378	1102.713565297392	0
2522	4829.964750444864	1103.097445674874	0
2523	4830.953894109118	1102.727024362976	0
2524	4830.904582537825	1102.713353753478	0
2525	4831.899659770391	1102.412931754348	0
2526	4830.901155020058	1102.709444348264	0
2527	4831.899876801014	1102.412925469063	0
2528	4831.90005540384	1102.412793236811	0
2529	4837.806674361082	1100.426547705869	0
2530	4837.804221546716	1100.426385091155	0
2531	4838.675271865206	1099.831623445582	0
2532	4837.806693092936	1100.426605066509	0
2533	4838.677655663991	1099.831635331358	0
2534	4838.678273046322	1099.831593251455	0
2535	4855.802411406781	1095.018920174279	0
2536	4855.803369478961	1095.01883640678	0
2537	4856.750752629908	1094.584558124181	0
2538	4855.811327837709	1095.021407224652	0
2539	4856.78359512506	1094.612119493908	0
2540	4856.750074291343	1094.584658861322	0
2541	4858.57994233722	1093.630930291832	0
2542	4858.57791026522	1093.631163473346	0
2543	4859.537041371255	1093.205467676159	0
2544	4858.58077742332	1093.631375326834	0
2545	4859.537640888008	1093.206384354773	0
2546	4858.579756154272	1093.630885577974	0
2547	4859.543758736708	1093.204894794275	0
2548	4859.538270291519	1093.204921968575	0
2549	4860.451627751461	1092.70216221281	0
2550	4860.451088504938	1092.702177249231	0
2551	4861.323092312968	1092.132142697497	0
2552	4860.452689720864	1092.702188466896	0
2553	4861.326341265966	1092.132513242361	0
2554	4861.32522572935	1092.132286019121	0
2555	4864.36105372044	1091.155948085328	0
2556	4864.360520137035	1091.156040371854	0
2557	4865.314074681654	1090.754593260067	0
2558	4864.361235550798	1091.15568183499	0
2559	4865.316940227707	1090.754532730125	0
2560	4865.313999936717	1090.754619924979	0
2561	4867.332378024108	1090.022585585824	0
2562	4867.332877740163	1090.022410314238	0
2563	4868.321773847278	1089.779727245042	0
2564	4867.335694777769	1090.021821166757	0
2565	4868.322409547146	1089.779802073767	0
2566	4868.321518531582	1089.779695270521	0
2567	4870.345180107682	1089.188698821557	0
2568	4870.345152393145	1089.188716967731	0
2569	4871.326994060943	1088.75392537674	0
2570	4870.34811368561	1089.189581602903	0
2571	4871.337408916346	1088.757460117994	0
2572	4871.328235049573	1088.753593130821	0
2573	4873.31991888373	1088.121739700469	0
2574	4873.3162789963	1088.1220264888	0
2575	4874.273000913468	1087.617895092445	0
2576	4873.319571573074	1088.121827562617	0
2577	4874.27792094617	1087.618219544511	0
2578	4874.278241003942	1087.618200513492	0
2579	4880.508890192277	1085.771613847876	0
2580	4880.507887970746	1085.771176218506	0
2581	4882.619653061303	1085.143325342293	0
2582	4880.518010701442	1085.76998351162	0
2583	4882.659543022305	1085.140034278656	0
2584	4882.659230314035	1085.139711855489	0
2585	4884.792186603097	1084.479358129588	0
2586	4884.79971887007	1084.478065251808	0
2587	4886.046456592977	1084.151873708826	0
2588	4884.792890343075	1084.479227514295	0
2589	4886.051012242695	1084.149763024268	0
2590	4886.042836353007	1084.1524395154	0
2591	4889.343839366494	1083.744846833214	0
2592	4889.342259476814	1083.745194885297	0
2593	4892.272862985982	1079.604146912379	0
2594	4892.272635885242	1079.604467959086	0
2595	4893.247915873207	1079.615335720197	0
2596	4892.27478781937	1079.610126786613	0
2597	4893.248460741292	1079.616628309649	0
2598	4893.247601407217	1079.615680074419	0
2599	4893.626471152645	1082.73917973311	0
2600	4893.628100135038	1082.739218625221	0
2601	4898.576401896513	1081.733067148391	0
2602	4898.577731674506	1081.73271119551	0
2603	4899.616116653445	1081.7488534175	0
2604	4898.610217672349	1081.7238300421	0
2605	4899.634464251741	1081.745267325211	0
2606	4899.615886852715	1081.748320718214	0
2607	4901.905594682127	1081.422099782582	0
2608	4901.906369358591	1081.42201308563	0
2609	4903.042210400013	1081.275327256276	0
2610	4901.903912604495	1081.4232778313	0
2611	4903.040412943254	1081.27596268828	0
2612	4903.043593519111	1081.275008355529	0
2613	4914.167750139937	1079.140132559173	0
2614	4914.172308392447	1079.141208971244	0
2615	4916.753420874094	1079.871800447686	0
2616	4914.153945780551	1079.135286488069	0
2617	4914.876286352308	1079.171735480557	0
2618	4914.609710033174	1079.321972945904	0
2619	4917.864082743721	1080.157852836979	0
2620	4917.864847427716	1080.157599128547	0
2621	4929.823108939105	1073.941517253818	0
2622	4929.826488503147	1073.940543632815	0
2623	4930.249603275794	1073.092932146562	0
2624	4929.831579805051	1073.887017379729	0
2625	4930.903397257846	1073.329295106246	0
2626	4930.902915272417	1073.329041780897	0
2627	4932.04924983517	1073.157741398634	0
2628	4930.901706827764	1073.329333537023	0
2629	4932.046312326117	1073.159230512545	0
2630	4932.053336355605	1073.157120231711	0
2631	4949.787577473504	1067.455279747851	0
2632	4949.785229217258	1067.455768955207	0
2633	4950.843669473401	1067.189353333788	0
2634	4950.84933980605	1067.188226949222	0
2635	4953.149521883342	1066.694944235547	0
2636	4953.172586268025	1066.686683925817	0
2637	4954.299229470313	1066.116526992048	0
2638	4953.145855406052	1066.695882149762	0
2639	4954.263197097407	1066.10858547983	0
2640	4954.29662143731	1066.11737036966	0
2641	4964.141293445857	1064.803223660202	0
2642	4964.149973150495	1064.80735324548	0
2643	4967.565410247753	1064.331176386278	0
2644	4964.144395043217	1064.802428553326	0
2645	4967.574323776034	1064.327297933116	0
2646	4967.573071646063	1064.32740401306	0
2647	4968.690432655651	1064.049554498969	0
2648	4968.68791464089	1064.049591938154	0
2649	4969.805310953278	1063.876775492041	0
2650	4968.690592593617	1064.049525703465	0
2651	4969.805658575596	1063.876860968245	0
2652	4969.806528074046	1063.876744506079	0
2653	4970.90390221111	1063.680580450717	0
2654	4970.907398985571	1063.679940252316	0
2655	4971.987931361589	1063.435707788647	0
2656	4970.911722201959	1063.679710786884	0
2657	4971.998614356473	1063.434266989488	0
2658	4971.996521051894	1063.434748769141	0
2659	4974.088498623578	1062.918051977044	0
2660	4974.085856032594	1062.918242000947	0
2661	4974.982073991645	1062.259839419349	0
2662	4974.08711861124	1062.918429621941	0
2663	4974.980760837323	1062.260946568374	0
2664	4974.982215805044	1062.259930122028	0
2665	4982.353206741863	1060.810723509348	0
2666	4982.340500737125	1060.8117381645	0
2667	4983.247473510733	1060.26731678208	0
2668	4982.353856011954	1060.810657350115	0
2669	4983.25191054784	1060.267096460573	0
2670	4983.249212645932	1060.266888231758	0
2671	4985.226988018609	1059.501180792849	0
2672	4985.226990083734	1059.501180034984	0
2673	4986.216437279808	1059.164196334892	0
2674	4985.223533263063	1059.502163604363	0
2675	4986.216893043893	1059.163489878703	0
2676	4986.217416674609	1059.164200296574	0
2677	4987.417287565383	1058.639897433457	0
2678	4987.418899727998	1058.639522005457	0
2679	4987.805326322238	1058.544750658887	0
2680	4987.805800235954	1058.544528749895	0
2681	5001.786562508585	1056.595397680083	0
2682	5001.786617236048	1056.595228200119	0
2683	5002.766639071673	1056.209289076969	0
2684	5001.788296221347	1056.59514182494	0
2685	5002.768150808543	1056.208996077702	0
2686	5002.768078516273	1056.209200699145	0
2687	5017.325814358843	1053.805724993927	0
2688	5017.325836285614	1053.805699767241	0
2689	5018.34681940727	1053.591921895978	0
2690	5017.325798883867	1053.806250927913	0
2691	5018.428031943772	1053.62423415164	0
2692	5018.349165601118	1053.591628363755	0
2693	5021.406332323923	1052.840265361954	0
2694	5021.404615258064	1052.839541632861	0
2695	5022.375931280461	1052.460146020218	0
2696	5021.409062386236	1052.840068316688	0
2697	5022.38052795056	1052.460921754349	0
2698	5022.381002654027	1052.460832246498	0
2699	5026.5926358476	1051.720349229221	0
2700	5026.591591516009	1051.720351156759	0
2701	5027.553236057075	1051.354144247813	0
2702	5026.594796710487	1051.720420102976	0
2703	5027.554438895772	1051.354387942807	0
2704	5027.553142930124	1051.354143856785	0
2705	5030.75586360965	1051.082194174711	0
2706	5030.756641333931	1051.0821416338	0
2707	5031.755165086243	1050.832706052746	0
2708	5030.75889373298	1051.082194292277	0
2709	5031.760860354188	1050.8324940351	0
2710	5031.755016090271	1050.832705675794	0
2711	5032.748684342512	1050.461492587655	0
2712	5031.75617174157	1050.832721567102	0
2713	5032.751693292807	1050.461168159033	0
2714	5032.748065482549	1050.46121376238	0
2715	5039.043029883892	1049.716667634924	0
2716	5039.043300020519	1049.716746566977	0
2717	5040.069675893254	1049.448379422726	0
2718	5039.045146595211	1049.716818334761	0
2719	5040.071150508926	1049.448143772253	0
2720	5040.069513910036	1049.448374818966	0
2721	5047.278134190606	1047.98992035812	0
2722	5047.276177052153	1047.989879302952	0
2723	5048.183194049073	1047.521389080811	0
2724	5048.182977408577	1047.521465243931	0
2725	5049.123007722264	1047.036548046036	0
2726	5047.277767015316	1047.989964840951	0
2727	5048.275996826313	1047.562582777161	0
2728	5048.275757320866	1047.562724192496	0
2729	5049.151997250641	1047.044591376366	0
2730	5049.124594795797	1047.036620248017	0
2731	5050.131406763928	1046.674965081942	0
2732	5049.151885367987	1047.044633600246	0
2733	5050.133826000307	1046.674367566301	0
2734	5050.13163890487	1046.674950738128	0
2735	5054.287083631153	1045.974915959436	0
2736	5054.28781276943	1045.974972333682	0
2737	5056.371508684718	1045.699777663674	0
2738	5054.287811235954	1045.971353150867	0
2739	5056.372494911237	1045.698781182378	0
2740	5056.371137075515	1045.699871539633	0
2741	5057.400338967189	1045.518354714009	0
2742	5057.400581377281	1045.518364002237	0
2743	5058.449857254916	1045.449299291445	0
2744	5057.403548756846	1045.512696144916	0
2745	5058.484448077507	1045.444630541451	0
2746	5058.449405382533	1045.449292351462	0
2747	5061.614088047748	1045.040918107966	0
2748	5061.61411851177	1045.040808793352	0
2749	5062.614768937392	1044.687810264377	0
2750	5061.621841360712	1045.041320233466	0
2751	5062.619623937443	1044.687760746795	0
2752	5062.620363878431	1044.687799085997	0
2753	5066.908448149812	1044.459964333844	0
2754	5066.908638092071	1044.459954252493	0
2755	5067.896927126023	1044.092900862353	0
2756	5067.896986018	1044.09287819049	0
2757	5068.508499470777	1043.396364395494	0
2758	5066.94121783107	1044.455091003114	0
2759	5067.945131948688	1044.09777711317	0
2760	5067.876847250947	1044.078219579371	0
2761	5068.542261508893	1043.398946433412	0
2762	5067.945253285813	1044.097837458668	0
2763	5069.399416884585	1043.955375404837	0
2764	5068.509074286748	1043.396470910771	0
2765	5069.40181368059	1043.954392170735	0
2766	5069.399631696558	1043.955387775747	0
2767	5075.89391125197	1044.223783190357	0
2768	5075.894589583861	1044.223963765674	0
2769	5076.977362553315	1044.392240725648	0
2770	5075.904612276452	1044.220724935957	0
2771	5077.017535784685	1044.383501926891	0
2772	5076.968906102959	1044.387755009783	0
2773	5078.077303699342	1044.558813951119	0
2774	5076.979561850057	1044.391925337486	0
2775	5078.05846048946	1044.573722066117	0
2776	5078.057241204682	1044.573763659251	0
2777	5079.09784399849	1044.746447375675	0
2778	5079.102731483257	1044.744679420279	0
2779	5080.142241707596	1044.921575074006	0
2780	5079.097572813904	1044.74631759086	0
2781	5080.13994173581	1044.922623776124	0
2782	5080.139641598893	1044.922662820522	0
2783	5081.213206428713	1045.062284243308	0
2784	5081.216698651924	1045.055685310194	0
2785	5082.281505823878	1045.359520711102	0
2786	5081.213158150728	1045.062278746314	0
2787	5082.265730653086	1045.358344357146	0
2788	5082.266265269998	1045.358544507773	0
2789	5101.729722183509	1047.829206874713	0
2790	5101.73003451069	1047.829128328778	0
2791	5102.783078950165	1047.649023644678	0
2792	5101.738164560073	1047.830721255943	0
2793	5102.791783374146	1047.649861352188	0
2794	5102.78974790173	1047.650153662733	0
2795	5113.628370002522	1048.260480156591	0
2796	5113.616743232827	1048.259857103198	0
2797	5114.697961261571	1048.195187719946	0
2798	5113.626437154083	1048.260156140264	0
2799	5114.719080105918	1048.196746599488	0
2800	5114.720285108315	1048.196929826612	0
2801	5115.790937189379	1048.377058479253	0
2802	5115.78961750095	1048.376929051054	0
2803	5116.835079710394	1048.668944184425	0
2804	5115.818938035069	1048.376933148299	0
2805	5116.836930809524	1048.668746032049	0
2806	5116.835766521992	1048.669255693723	0
2807	5118.959531752638	1049.284859995073	0
2808	5118.931904500511	1049.284264764152	0
2809	5119.91929469386	1049.775457074335	0
2810	5118.960663176415	1049.284725155602	0
2811	5119.926044795977	1049.776004211119	0
2812	5119.920053761142	1049.775529875414	0
2813	5145.488436103728	1053.217060323208	0
2814	5145.488183338927	1053.216457736924	0
2815	5146.670290770127	1053.554522660675	0
2816	5145.527750796864	1053.212230524203	0
2817	5146.653745950564	1053.552710564305	0
2818	5146.67354255938	1053.554547509272	0
2819	5148.881610336306	1053.895485858768	0
2820	5148.882193727075	1053.895479616149	0
2821	5150.118092552862	1053.988992498652	0
2822	5148.892866017914	1053.896842251272	0
2823	5150.184675318561	1053.936124820702	0
2824	5150.119621340914	1053.989248653941	0
2825	5156.093009461056	1054.99710226256	0
2826	5156.094587199478	1054.997732518712	0
2827	5157.081372769708	1054.953297255233	0
2828	5156.150968493363	1055.00363599769	0
2829	5157.102197702882	1054.954652719001	0
2830	5157.080404832061	1054.953066312383	0
